Time,pH,mCa,mTIC,mCO3,rdiss,Omega
0,6,0,1.38772e-05,2.00234e-10,1.54e-06,0
2.5,6.27988,1.67209e-06,7.78896e-05,3.18976e-09,1.1172e-06,1.61071e-06
5,6.48194,3.07911e-06,0.00018783,1.53377e-08,9.43383e-07,1.42622e-05
7.5,6.65188,4.33844e-06,0.000342703,4.80019e-08,8.48333e-07,6.28915e-05
10,6.80963,5.50117e-06,0.00054099,1.2129e-07,7.87804e-07,0.000201503
12.5,6.96731,6.59401e-06,0.000780352,2.72999e-07,7.45551e-07,0.000543639
15,7.13559,7.63263e-06,0.00105818,5.81743e-07,7.14175e-07,0.00134093
17.5,7.32683,8.62682e-06,0.00137186,1.23314e-06,6.8971e-07,0.00321264
20,7.55491,9.58235e-06,0.00171886,2.71682e-06,6.69496e-07,0.007862
22.5,7.81618,1.05005e-05,0.00209676,6.20552e-06,6.50531e-07,0.0196784
25,8.05772,1.13759e-05,0.00250325,1.30762e-05,6.28243e-07,0.0449227
27.5,8.2385,1.21974e-05,0.00293612,2.33455e-05,5.98801e-07,0.0859948
30,8.36701,1.29526e-05,0.00339328,3.62902e-05,5.61011e-07,0.141953
32.5,8.45989,1.36295e-05,0.00387275,5.12565e-05,5.15302e-07,0.210974
35,8.52822,1.42189e-05,0.00437264,6.76562e-05,4.63034e-07,0.290519
37.5,8.57875,1.47147e-05,0.00489118,8.49155e-05,4.06187e-07,0.377345
40,8.61574,1.51147e-05,0.00542667,0.000102479,3.47096e-07,0.467771
42.5,8.64208,1.54204e-05,0.00597753,0.000119834,2.88163e-07,0.558052
45,8.65982,1.56369e-05,0.00654224,0.000136537,2.31595e-07,0.644764
47.5,8.67053,1.5772e-05,0.0071194,0.000152233,1.79211e-07,0.725095
50,8.67547,1.58353e-05,0.00770766,0.000166664,1.32318e-07,0.79702
52.5,8.67565,1.58377e-05,0.00830575,0.00017967,9.16918e-08,0.859342
55,8.67193,1.57899e-05,0.00891248,0.000191179,5.76061e-08,0.911633
57.5,8.66511,1.57032e-05,0.00952672,0.000201221,2.9828e-08,0.954246
60,8.65596,1.55891e-05,0.0101474,0.000209934,7.60565e-09,0.988334
62.5,8.64555,1.54621e-05,0.0107735,0.00021769,0,1.0165
65,8.63512,1.53379e-05,0.0114041,0.000225046,0,1.0424
67.5,8.62467,1.52163e-05,0.0120384,0.000231993,0,1.06607
70,8.6142,1.50973e-05,0.0126754,0.000238528,0,1.08753
72.5,8.60371,1.49809e-05,0.0133143,0.000244649,0,1.10683
75,8.59319,1.48669e-05,0.0139544,0.000250355,0,1.12403
77.5,8.58266,1.47554e-05,0.0145951,0.000255649,0,1.13919
80,8.57211,1.46463e-05,0.0152356,0.000260536,0,1.15238
82.5,8.56154,1.45396e-05,0.0158753,0.000265021,0,1.16368
85,8.55096,1.44352e-05,0.0165137,0.000269111,0,1.17315
87.5,8.54037,1.43331e-05,0.0171502,0.000272814,0,1.18089
90,8.52977,1.42333e-05,0.0177843,0.000276141,0,1.18696
92.5,8.51916,1.41357e-05,0.0184155,0.000279101,0,1.19146
95,8.50854,1.40402e-05,0.0190434,0.000281706,0,1.19445
97.5,8.49792,1.39469e-05,0.0196676,0.000283967,0,1.19604
100,8.48731,1.38557e-05,0.0202877,0.000285896,0,1.19629
102.5,8.47669,1.37665e-05,0.0209034,0.000287505,0,1.19528
105,8.46608,1.36794e-05,0.0215143,0.000288809,0,1.1931
107.5,8.45548,1.35943e-05,0.0221201,0.000289819,0,1.18983
110,8.44488,1.35111e-05,0.0227206,0.000290548,0,1.18553
112.5,8.4343,1.34299e-05,0.0233155,0.000291011,0,1.18027
115,8.42373,1.33505e-05,0.0239046,0.000291221,0,1.17414
117.5,8.41318,1.3273e-05,0.0244876,0.00029119,0,1.1672
120,8.40265,1.31972e-05,0.0250644,0.000290931,0,1.15951
122.5,8.39214,1.31233e-05,0.0256348,0.000290458,0,1.15113
125,8.38166,1.3051e-05,0.0261987,0.000289784,0,1.14214
127.5,8.37121,1.29805e-05,0.0267558,0.000288921,0,1.13259
130,8.36079,1.29116e-05,0.0273061,0.000287882,0,1.12252
132.5,8.35041,1.28443e-05,0.0278495,0.000286679,0,1.11201
135,8.34006,1.27787e-05,0.0283859,0.000285324,0,1.10109
137.5,8.32976,1.27146e-05,0.0289152,0.000283827,0,1.08982
140,8.3195,1.2652e-05,0.0294372,0.000282201,0,1.07825
142.5,8.30929,1.25909e-05,0.0299521,0.000280457,0,1.06641
145,8.29913,1.25313e-05,0.0304596,0.000278603,0,1.05434
147.5,8.28902,1.2473e-05,0.0309598,0.000276652,0,1.04209
150,8.27898,1.24162e-05,0.0314527,0.000274611,0,1.02969
152.5,8.26899,1.23608e-05,0.0319382,0.000272492,0,1.01718
155,8.25907,1.23067e-05,0.0324162,0.000270302,0,1.00459
157.5,8.25065,1.22615e-05,0.0328869,0.000268938,2.71813e-09,0.99585
160,8.24458,1.22293e-05,0.0333503,0.000268929,4.44991e-09,0.993207
162.5,8.23883,1.21992e-05,0.0338062,0.000269003,5.87709e-09,0.991029
165,8.23335,1.21707e-05,0.0342548,0.00026914,7.06001e-09,0.989225
167.5,8.22812,1.21438e-05,0.0346961,0.000269326,8.04786e-09,0.987718
170,8.22311,1.21182e-05,0.03513,0.000269548,8.88024e-09,0.986449
172.5,8.21829,1.20938e-05,0.0355567,0.000269796,9.58876e-09,0.985369
175,8.21365,1.20705e-05,0.0359761,0.000270061,1.01985e-08,0.98444
177.5,8.20918,1.20482e-05,0.0363884,0.000270339,1.07291e-08,0.983632
180,8.20485,1.20269e-05,0.0367935,0.000270624,1.11961e-08,0.982921
182.5,8.20067,1.20063e-05,0.0371915,0.000270913,1.16117e-08,0.982289
185,8.19662,1.19865e-05,0.0375825,0.000271202,1.19853e-08,0.98172
187.5,8.19269,1.19675e-05,0.0379666,0.000271491,1.23245e-08,0.981204
190,8.18889,1.19492e-05,0.0383437,0.000271777,1.26352e-08,0.980732
192.5,8.18519,1.19315e-05,0.038714,0.000272059,1.29218e-08,0.980296
195,8.1816,1.19144e-05,0.0390775,0.000272337,1.31881e-08,0.979892
197.5,8.17811,1.18979e-05,0.0394343,0.00027261,1.3437e-08,0.979514
200,8.17473,1.18819e-05,0.0397845,0.000272877,1.36707e-08,0.979159
202.5,8.17143,1.18665e-05,0.0401281,0.000273138,1.38912e-08,0.978824
205,8.16823,1.18516e-05,0.0404653,0.000273394,1.41e-08,0.978507
207.5,8.16512,1.18371e-05,0.040796,0.000273643,1.42983e-08,0.978207
210,8.16209,1.18231e-05,0.0411205,0.000273887,1.44871e-08,0.97792
212.5,8.15914,1.18096e-05,0.0414386,0.000274124,1.46673e-08,0.977647
215,8.15628,1.17965e-05,0.0417507,0.000274356,1.48396e-08,0.977386
217.5,8.15349,1.17837e-05,0.0420566,0.000274582,1.50047e-08,0.977136
220,8.15077,1.17714e-05,0.0423566,0.000274801,1.51631e-08,0.976896
222.5,8.14813,1.17595e-05,0.0426506,0.000275016,1.53152e-08,0.976665
225,8.14556,1.17479e-05,0.0429389,0.000275224,1.54614e-08,0.976444
227.5,8.14306,1.17367e-05,0.0432213,0.000275428,1.56022e-08,0.976231
230,8.14062,1.17258e-05,0.0434982,0.000275626,1.57378e-08,0.976025
232.5,8.13825,1.17152e-05,0.0437694,0.000275818,1.58686e-08,0.975828
235,8.13593,1.17049e-05,0.0440352,0.000276006,1.59948e-08,0.975637
237.5,8.13368,1.1695e-05,0.0442956,0.000276189,1.61166e-08,0.975452
240,8.13149,1.16853e-05,0.0445506,0.000276367,1.62343e-08,0.975274
242.5,8.12936,1.16759e-05,0.0448005,0.000276541,1.63481e-08,0.975102
245,8.12728,1.16668e-05,0.0450452,0.00027671,1.64581e-08,0.974936
247.5,8.12525,1.16579e-05,0.0452848,0.000276874,1.65646e-08,0.974775
250,8.12328,1.16493e-05,0.0455194,0.000277034,1.66677e-08,0.974619
252.5,8.12136,1.1641e-05,0.0457492,0.00027719,1.67675e-08,0.974468
255,8.11949,1.16329e-05,0.0459742,0.000277342,1.68643e-08,0.974322
257.5,8.11766,1.1625e-05,0.0461944,0.00027749,1.6958e-08,0.97418
260,8.11588,1.16173e-05,0.04641,0.000277634,1.70489e-08,0.974043
262.5,8.11415,1.16098e-05,0.046621,0.000277774,1.71371e-08,0.97391
265,8.11246,1.16026e-05,0.0468275,0.000277911,1.72226e-08,0.973781
267.5,8.11082,1.15955e-05,0.0470297,0.000278044,1.73057e-08,0.973655
270,8.10922,1.15887e-05,0.0472275,0.000278174,1.73863e-08,0.973534
272.5,8.10766,1.1582e-05,0.0474211,0.0002783,1.74646e-08,0.973416
275,8.10613,1.15756e-05,0.0476105,0.000278423,1.75406e-08,0.973301
277.5,8.10465,1.15692e-05,0.0477959,0.000278543,1.76145e-08,0.973189
280,8.1032,1.15631e-05,0.0479772,0.00027866,1.76863e-08,0.973081
282.5,8.10179,1.15571e-05,0.0481546,0.000278773,1.7756e-08,0.972976
285,8.10042,1.15513e-05,0.0483281,0.000278884,1.78239e-08,0.972873
287.5,8.09908,1.15457e-05,0.0484978,0.000278992,1.78898e-08,0.972774
290,8.09778,1.15402e-05,0.0486639,0.000279097,1.7954e-08,0.972677
292.5,8.0965,1.15349e-05,0.0488263,0.000279199,1.80164e-08,0.972583
295,8.09526,1.15296e-05,0.0489851,0.000279299,1.80771e-08,0.972492
297.5,8.09405,1.15246e-05,0.0491404,0.000279396,1.81361e-08,0.972403
300,8.09288,1.15197e-05,0.0492922,0.000279491,1.81936e-08,0.972316
302.5,8.09173,1.15149e-05,0.0494408,0.000279583,1.82496e-08,0.972232
305,8.09061,1.15102e-05,0.049586,0.000279673,1.8304e-08,0.972149
307.5,8.08951,1.15056e-05,0.0497279,0.000279761,1.83571e-08,0.97207
310,8.08845,1.15012e-05,0.0498668,0.000279846,1.84087e-08,0.971992
312.5,8.08741,1.14969e-05,0.0500025,0.000279929,1.8459e-08,0.971916
315,8.0864,1.14927e-05,0.0501351,0.00028001,1.8508e-08,0.971842
317.5,8.08541,1.14886e-05,0.0502648,0.000280089,1.85557e-08,0.97177
320,8.08445,1.14846e-05,0.0503916,0.000280166,1.86021e-08,0.9717
322.5,8.08351,1.14807e-05,0.0505155,0.000280241,1.86474e-08,0.971632
325,8.08259,1.1477e-05,0.0506366,0.000280314,1.86915e-08,0.971566
327.5,8.0817,1.14733e-05,0.050755,0.000280386,1.87344e-08,0.971501
330,8.08083,1.14697e-05,0.0508706,0.000280455,1.87763e-08,0.971438
332.5,8.07998,1.14662e-05,0.0509837,0.000280523,1.88171e-08,0.971377
335,8.07916,1.14628e-05,0.0510942,0.000280589,1.88569e-08,0.971317
337.5,8.07835,1.14595e-05,0.0512021,0.000280653,1.88956e-08,0.971258
340,8.07756,1.14563e-05,0.0513076,0.000280715,1.89334e-08,0.971202
342.5,8.07679,1.14531e-05,0.0514107,0.000280776,1.89702e-08,0.971146
345,8.07605,1.14501e-05,0.0515114,0.000280836,1.90061e-08,0.971092
347.5,8.07532,1.14471e-05,0.0516098,0.000280894,1.90411e-08,0.971039
350,8.0746,1.14442e-05,0.051706,0.000280951,1.90752e-08,0.970988
352.5,8.07391,1.14413e-05,0.0517999,0.000281006,1.91085e-08,0.970938
355,8.07323,1.14386e-05,0.0518917,0.000281059,1.91409e-08,0.970889
357.5,8.07257,1.14359e-05,0.0519813,0.000281112,1.91725e-08,0.970842
360,8.07193,1.14333e-05,0.0520689,0.000281163,1.92033e-08,0.970795
362.5,8.0713,1.14307e-05,0.0521545,0.000281212,1.92334e-08,0.97075
365,8.07069,1.14282e-05,0.052238,0.000281261,1.92627e-08,0.970706
367.5,8.07009,1.14258e-05,0.0523196,0.000281308,1.92913e-08,0.970663
370,8.06951,1.14234e-05,0.0523994,0.000281354,1.93192e-08,0.970621
372.5,8.06894,1.14211e-05,0.0524772,0.000281399,1.93464e-08,0.97058
375,8.06839,1.14189e-05,0.0525533,0.000281443,1.93729e-08,0.97054
377.5,8.06785,1.14167e-05,0.0526276,0.000281486,1.93988e-08,0.970501
380,8.06732,1.14145e-05,0.0527001,0.000281527,1.9424e-08,0.970463
382.5,8.06681,1.14125e-05,0.0527709,0.000281568,1.94486e-08,0.970426
385,8.06631,1.14104e-05,0.0528401,0.000281607,1.94726e-08,0.97039
387.5,8.06582,1.14085e-05,0.0529077,0.000281646,1.9496e-08,0.970355
390,8.06534,1.14065e-05,0.0529736,0.000281684,1.95189e-08,0.970321
392.5,8.06488,1.14047e-05,0.0530381,0.00028172,1.95412e-08,0.970287
395,8.06442,1.14028e-05,0.053101,0.000281756,1.95629e-08,0.970254
397.5,8.06398,1.1401e-05,0.0531624,0.000281791,1.95841e-08,0.970222
400,8.06355,1.13993e-05,0.0532224,0.000281825,1.96048e-08,0.970191
402.5,8.06313,1.13976e-05,0.0532809,0.000281858,1.96249e-08,0.970161
405,8.06272,1.13959e-05,0.0533381,0.00028189,1.96446e-08,0.970131
407.5,8.06232,1.13943e-05,0.0533939,0.000281922,1.96638e-08,0.970103
410,8.06193,1.13928e-05,0.0534484,0.000281952,1.96825e-08,0.970074
412.5,8.06155,1.13912e-05,0.0535016,0.000281982,1.97008e-08,0.970047
415,8.06117,1.13897e-05,0.0535536,0.000282011,1.97186e-08,0.97002
417.5,8.06081,1.13883e-05,0.0536043,0.00028204,1.9736e-08,0.969994
420,8.06046,1.13869e-05,0.0536538,0.000282068,1.9753e-08,0.969969
422.5,8.06011,1.13855e-05,0.0537021,0.000282095,1.97695e-08,0.969944
425,8.05978,1.13841e-05,0.0537493,0.000282121,1.97857e-08,0.969919
427.5,8.05945,1.13828e-05,0.0537953,0.000282147,1.98014e-08,0.969896
430,8.05913,1.13815e-05,0.0538403,0.000282172,1.98168e-08,0.969873
432.5,8.05882,1.13803e-05,0.0538842,0.000282196,1.98318e-08,0.96985
435,8.05851,1.13791e-05,0.053927,0.00028222,1.98464e-08,0.969828
437.5,8.05822,1.13779e-05,0.0539688,0.000282243,1.98607e-08,0.969807
440,8.05793,1.13767e-05,0.0540096,0.000282266,1.98746e-08,0.969786
442.5,8.05765,1.13756e-05,0.0540494,0.000282288,1.98882e-08,0.969765
445,8.05737,1.13745e-05,0.0540883,0.00028231,1.99015e-08,0.969745
447.5,8.0571,1.13734e-05,0.0541263,0.000282331,1.99144e-08,0.969726
450,8.05684,1.13724e-05,0.0541633,0.000282351,1.9927e-08,0.969707
452.5,8.05659,1.13713e-05,0.0541994,0.000282371,1.99393e-08,0.969688
455,8.05634,1.13703e-05,0.0542347,0.000282391,1.99513e-08,0.96967
457.5,8.05609,1.13694e-05,0.0542691,0.00028241,1.99631e-08,0.969653
460,8.05586,1.13684e-05,0.0543027,0.000282428,1.99745e-08,0.969636
462.5,8.05563,1.13675e-05,0.0543355,0.000282446,1.99856e-08,0.969619
465,8.0554,1.13666e-05,0.0543675,0.000282464,1.99965e-08,0.969602
467.5,8.05518,1.13657e-05,0.0543987,0.000282481,2.00071e-08,0.969587
470,8.05497,1.13649e-05,0.0544292,0.000282498,2.00175e-08,0.969571
472.5,8.05476,1.1364e-05,0.0544589,0.000282514,2.00276e-08,0.969556
475,8.05455,1.13632e-05,0.0544879,0.00028253,2.00375e-08,0.969541
477.5,8.05435,1.13624e-05,0.0545163,0.000282545,2.00471e-08,0.969527
480,8.05416,1.13617e-05,0.0545439,0.000282561,2.00565e-08,0.969512
482.5,8.05397,1.13609e-05,0.0545708,0.000282575,2.00656e-08,0.969499
485,8.05379,1.13602e-05,0.0545972,0.00028259,2.00745e-08,0.969485
487.5,8.05361,1.13595e-05,0.0546228,0.000282604,2.00833e-08,0.969472
490,8.05343,1.13588e-05,0.0546479,0.000282617,2.00918e-08,0.969459
492.5,8.05326,1.13581e-05,0.0546723,0.000282631,2.01001e-08,0.969447
495,8.05309,1.13574e-05,0.0546962,0.000282644,2.01082e-08,0.969435
497.5,8.05293,1.13568e-05,0.0547194,0.000282656,2.01161e-08,0.969423
500,8.05277,1.13561e-05,0.0547421,0.000282669,2.01238e-08,0.969411
502.5,8.05261,1.13555e-05,0.0547643,0.000282681,2.01313e-08,0.9694
505,8.05246,1.13549e-05,0.0547859,0.000282693,2.01386e-08,0.969389
507.5,8.05232,1.13543e-05,0.054807,0.000282704,2.01458e-08,0.969378
510,8.05217,1.13537e-05,0.0548275,0.000282715,2.01528e-08,0.969368
512.5,8.05203,1.13532e-05,0.0548476,0.000282726,2.01596e-08,0.969357
515,8.0519,1.13526e-05,0.0548672,0.000282737,2.01662e-08,0.969347
517.5,8.05176,1.13521e-05,0.0548863,0.000282747,2.01727e-08,0.969338
520,8.05163,1.13516e-05,0.0549049,0.000282757,2.0179e-08,0.969328
522.5,8.05151,1.13511e-05,0.0549231,0.000282767,2.01852e-08,0.969319
525,8.05138,1.13506e-05,0.0549409,0.000282777,2.01912e-08,0.96931
527.5,8.05126,1.13501e-05,0.0549582,0.000282786,2.01971e-08,0.969301
530,8.05114,1.13497e-05,0.054975,0.000282795,2.02028e-08,0.969293
532.5,8.05103,1.13492e-05,0.0549915,0.000282804,2.02084e-08,0.969284
535,8.05092,1.13488e-05,0.0550076,0.000282813,2.02138e-08,0.969276
537.5,8.05081,1.13483e-05,0.0550233,0.000282821,2.02192e-08,0.969268
540,8.0507,1.13479e-05,0.0550385,0.00028283,2.02244e-08,0.96926
542.5,8.0506,1.13475e-05,0.0550535,0.000282838,2.02294e-08,0.969253
545,8.0505,1.13471e-05,0.055068,0.000282845,2.02344e-08,0.969245
547.5,8.0504,1.13467e-05,0.0550822,0.000282853,2.02392e-08,0.969238
550,8.0503,1.13463e-05,0.055096,0.000282861,2.02439e-08,0.969231
552.5,8.05021,1.13459e-05,0.0551096,0.000282868,2.02485e-08,0.969224
555,8.05012,1.13456e-05,0.0551227,0.000282875,2.02529e-08,0.969217
557.5,8.05003,1.13452e-05,0.0551356,0.000282882,2.02573e-08,0.969211
560,8.04994,1.13449e-05,0.0551481,0.000282889,2.02615e-08,0.969204
562.5,8.04985,1.13445e-05,0.0551603,0.000282895,2.02657e-08,0.969198
565,8.04977,1.13442e-05,0.0551723,0.000282902,2.02697e-08,0.969192
567.5,8.04969,1.13439e-05,0.0551839,0.000282908,2.02737e-08,0.969186
570,8.04961,1.13436e-05,0.0551953,0.000282914,2.02775e-08,0.96918
572.5,8.04953,1.13433e-05,0.0552063,0.00028292,2.02813e-08,0.969175
575,8.04946,1.1343e-05,0.0552171,0.000282926,2.0285e-08,0.969169
577.5,8.04939,1.13427e-05,0.0552277,0.000282931,2.02886e-08,0.969164
580,8.04932,1.13424e-05,0.0552379,0.000282937,2.0292e-08,0.969158
582.5,8.04925,1.13421e-05,0.0552479,0.000282942,2.02955e-08,0.969153
585,8.04918,1.13419e-05,0.0552577,0.000282948,2.02988e-08,0.969148
587.5,8.04911,1.13416e-05,0.0552672,0.000282953,2.0302e-08,0.969143
590,8.04905,1.13413e-05,0.0552765,0.000282958,2.03052e-08,0.969139
592.5,8.04898,1.13411e-05,0.0552856,0.000282963,2.03083e-08,0.969134
595,8.04892,1.13408e-05,0.0552945,0.000282967,2.03113e-08,0.96913
597.5,8.04886,1.13406e-05,0.0553031,0.000282972,2.03142e-08,0.969125
600,8.04881,1.13404e-05,0.0553115,0.000282976,2.03171e-08,0.969121
602.5,8.04875,1.13402e-05,0.0553197,0.000282981,2.03198e-08,0.969117
605,8.04869,1.13399e-05,0.0553277,0.000282985,2.03226e-08,0.969113
607.5,8.04864,1.13397e-05,0.0553355,0.000282989,2.03252e-08,0.969109
610,8.04859,1.13395e-05,0.0553431,0.000282993,2.03278e-08,0.969105
612.5,8.04854,1.13393e-05,0.0553505,0.000282997,2.03303e-08,0.969101
615,8.04848,1.13391e-05,0.0553578,0.000283001,2.03328e-08,0.969097
617.5,8.04844,1.13389e-05,0.0553648,0.000283005,2.03352e-08,0.969094
620,8.04839,1.13387e-05,0.0553717,0.000283009,2.03376e-08,0.96909
622.5,8.04834,1.13385e-05,0.0553785,0.000283012,2.03398e-08,0.969087
625,8.0483,1.13384e-05,0.055385,0.000283016,2.03421e-08,0.969083
627.5,8.04825,1.13382e-05,0.0553914,0.000283019,2.03442e-08,0.96908
630,8.04821,1.1338e-05,0.0553976,0.000283023,2.03464e-08,0.969077
632.5,8.04817,1.13378e-05,0.0554037,0.000283026,2.03484e-08,0.969074
635,8.04813,1.13377e-05,0.0554096,0.000283029,2.03505e-08,0.969071
637.5,8.04809,1.13375e-05,0.0554154,0.000283032,2.03524e-08,0.969068
640,8.04805,1.13374e-05,0.055421,0.000283035,2.03543e-08,0.969065
642.5,8.04801,1.13372e-05,0.0554265,0.000283038,2.03562e-08,0.969062
645,8.04797,1.13371e-05,0.0554319,0.000283041,2.0358e-08,0.969059
647.5,8.04794,1.13369e-05,0.0554371,0.000283044,2.03598e-08,0.969057
650,8.0479,1.13368e-05,0.0554422,0.000283046,2.03616e-08,0.969054
652.5,8.04787,1.13367e-05,0.0554472,0.000283049,2.03633e-08,0.969051
655,8.04783,1.13365e-05,0.055452,0.000283052,2.03649e-08,0.969049
657.5,8.0478,1.13364e-05,0.0554568,0.000283054,2.03665e-08,0.969047
660,8.04777,1.13363e-05,0.0554614,0.000283057,2.03681e-08,0.969044
662.5,8.04774,1.13361e-05,0.0554659,0.000283059,2.03696e-08,0.969042
665,8.04771,1.1336e-05,0.0554703,0.000283061,2.03711e-08,0.96904
667.5,8.04768,1.13359e-05,0.0554745,0.000283064,2.03726e-08,0.969037
670,8.04765,1.13358e-05,0.0554787,0.000283066,2.0374e-08,0.969035
672.5,8.04762,1.13357e-05,0.0554828,0.000283068,2.03754e-08,0.969033
675,8.04759,1.13356e-05,0.0554867,0.00028307,2.03768e-08,0.969031
677.5,8.04757,1.13355e-05,0.0554906,0.000283072,2.03781e-08,0.969029
680,8.04754,1.13354e-05,0.0554944,0.000283074,2.03794e-08,0.969027
682.5,8.04751,1.13353e-05,0.0554981,0.000283076,2.03806e-08,0.969025
685,8.04749,1.13352e-05,0.0555016,0.000283078,2.03818e-08,0.969024
687.5,8.04747,1.13351e-05,0.0555051,0.00028308,2.0383e-08,0.969022
690,8.04744,1.1335e-05,0.0555085,0.000283082,2.03842e-08,0.96902
692.5,8.04742,1.13349e-05,0.0555119,0.000283083,2.03853e-08,0.969018
695,8.0474,1.13348e-05,0.0555151,0.000283085,2.03865e-08,0.969017
697.5,8.04738,1.13347e-05,0.0555183,0.000283087,2.03875e-08,0.969015
700,8.04735,1.13346e-05,0.0555214,0.000283089,2.03886e-08,0.969013
702.5,8.04733,1.13345e-05,0.0555244,0.00028309,2.03896e-08,0.969012
705,8.04731,1.13345e-05,0.0555273,0.000283092,2.03906e-08,0.96901
707.5,8.04729,1.13344e-05,0.0555302,0.000283093,2.03916e-08,0.969009
710,8.04727,1.13343e-05,0.0555329,0.000283095,2.03925e-08,0.969007
712.5,8.04726,1.13342e-05,0.0555357,0.000283096,2.03935e-08,0.969006
715,8.04724,1.13342e-05,0.0555383,0.000283098,2.03944e-08,0.969005
717.5,8.04722,1.13341e-05,0.0555409,0.000283099,2.03953e-08,0.969003
720,8.0472,1.1334e-05,0.0555434,0.0002831,2.03961e-08,0.969002
722.5,8.04718,1.1334e-05,0.0555459,0.000283102,2.0397e-08,0.969001
725,8.04717,1.13339e-05,0.0555483,0.000283103,2.03978e-08,0.969
727.5,8.04715,1.13338e-05,0.0555506,0.000283104,2.03986e-08,0.968998
730,8.04714,1.13338e-05,0.0555529,0.000283105,2.03994e-08,0.968997
732.5,8.04712,1.13337e-05,0.0555551,0.000283106,2.04001e-08,0.968996
735,8.04711,1.13336e-05,0.0555573,0.000283108,2.04009e-08,0.968995
737.5,8.04709,1.13336e-05,0.0555594,0.000283109,2.04016e-08,0.968994
740,8.04708,1.13335e-05,0.0555614,0.00028311,2.04023e-08,0.968993
742.5,8.04706,1.13335e-05,0.0555634,0.000283111,2.0403e-08,0.968992
745,8.04705,1.13334e-05,0.0555654,0.000283112,2.04037e-08,0.968991
747.5,8.04704,1.13334e-05,0.0555673,0.000283113,2.04043e-08,0.96899
750,8.04702,1.13333e-05,0.0555692,0.000283114,2.04049e-08,0.968989
752.5,8.04701,1.13333e-05,0.055571,0.000283115,2.04056e-08,0.968988
