Time,pH,mCa,mTIC,mCO3,rdiss,Omega
0,6,0,1.38772e-05,2.00234e-10,1.54e-06,0
2.5,6.28042,1.67562e-06,1.63144e-05,6.69387e-10,1.11663e-06,3.3873e-07
5,6.48288,3.08597e-06,1.90949e-05,1.56407e-09,9.42759e-07,1.45763e-06
7.5,6.65361,4.35133e-06,2.23576e-05,3.14825e-09,8.47595e-07,4.13707e-06
10,6.81279,5.52392e-06,2.61687e-05,5.92092e-09,7.86955e-07,9.87727e-06
12.5,6.973,6.63144e-06,3.05592e-05,1.08592e-08,7.44693e-07,2.17473e-05
15,7.14578,7.6907e-06,3.55446e-05,2.00708e-08,7.13588e-07,4.66156e-05
17.5,7.34542,8.71317e-06,4.11332e-05,3.87439e-08,6.90106e-07,0.000101948
20,7.58876,9.70812e-06,4.73305e-05,8.12228e-08,6.72782e-07,0.00023813
22.5,7.86986,1.06848e-05,5.4142e-05,1.81947e-07,6.61621e-07,0.000587099
25,8.1237,1.16512e-05,6.15716e-05,3.75091e-07,6.55827e-07,0.00131979
27.5,8.3127,1.26111e-05,6.96193e-05,6.57019e-07,6.52695e-07,0.00250226
30,8.45189,1.35659e-05,7.82824e-05,1.01726e-06,6.50422e-07,0.00416756
32.5,8.55913,1.45156e-05,8.7557e-05,1.45366e-06,6.48299e-07,0.00637231
35,8.64536,1.54598e-05,9.74388e-05,1.96801e-06,6.46023e-07,0.00918823
37.5,8.71701,1.63979e-05,0.000107923,2.56339e-06,6.43435e-07,0.0126941
40,8.77802,1.73292e-05,0.000119006,3.2431e-06,6.40427e-07,0.0169722
42.5,8.83094,1.82527e-05,0.000130682,4.01034e-06,6.36916e-07,0.0221059
45,8.87752,1.91674e-05,0.000142946,4.86802e-06,6.32831e-07,0.0281783
47.5,8.91898,2.00723e-05,0.000155794,5.81868e-06,6.28108e-07,0.0352713
50,8.95622,2.09661e-05,0.00016922,6.86447e-06,6.2269e-07,0.0434636
52.5,8.98991,2.18477e-05,0.00018322,8.00708e-06,6.16523e-07,0.05283
55,9.02056,2.27159e-05,0.000197788,9.24773e-06,6.09559e-07,0.0634402
57.5,9.04859,2.35691e-05,0.000212919,1.05872e-05,6.01754e-07,0.0753571
60,9.07431,2.44062e-05,0.000228609,1.20257e-05,5.9307e-07,0.0886364
62.5,9.09799,2.52258e-05,0.000244851,1.35631e-05,5.83476e-07,0.103325
65,9.11983,2.60263e-05,0.000261641,1.51987e-05,5.72946e-07,0.119459
67.5,9.14002,2.68065e-05,0.000278974,1.69312e-05,5.61464e-07,0.137065
70,9.15871,2.75649e-05,0.000296844,1.87589e-05,5.49018e-07,0.156158
72.5,9.17601,2.83001e-05,0.000315247,2.06798e-05,5.35608e-07,0.176739
75,9.19204,2.90107e-05,0.000334177,2.2691e-05,5.21239e-07,0.198798
77.5,9.20689,2.96955e-05,0.000353629,2.47896e-05,5.05928e-07,0.22231
80,9.22064,3.03531e-05,0.000373599,2.69719e-05,4.89699e-07,0.247238
82.5,9.23335,3.09823e-05,0.000394082,2.92341e-05,4.72584e-07,0.273529
85,9.24509,3.1582e-05,0.000415072,3.15716e-05,4.54627e-07,0.301118
87.5,9.25591,3.21512e-05,0.000436565,3.39799e-05,4.35878e-07,0.329928
90,9.26585,3.26888e-05,0.000458556,3.64538e-05,4.16395e-07,0.359867
92.5,9.27497,3.3194e-05,0.000481042,3.8988e-05,3.96247e-07,0.390832
95,9.2833,3.36661e-05,0.000504017,4.15767e-05,3.75506e-07,0.422711
97.5,9.29088,3.41044e-05,0.000527478,4.42142e-05,3.54252e-07,0.455378
100,9.29773,3.45085e-05,0.00055142,4.68943e-05,3.32572e-07,0.488704
102.5,9.30389,3.48779e-05,0.00057584,4.96108e-05,3.10554e-07,0.522549
105,9.30938,3.52125e-05,0.000600733,5.23575e-05,2.88293e-07,0.55677
107.5,9.31423,3.55122e-05,0.000626097,5.51278e-05,2.65884e-07,0.591219
110,9.31847,3.5777e-05,0.000651928,5.79156e-05,2.43423e-07,0.625749
112.5,9.32211,3.60072e-05,0.000678221,6.07144e-05,2.21008e-07,0.660209
115,9.32519,3.62031e-05,0.000704976,6.35179e-05,1.98735e-07,0.694452
117.5,9.32772,3.63653e-05,0.000732187,6.63199e-05,1.76696e-07,0.728335
120,9.32971,3.64943e-05,0.000759854,6.91146e-05,1.54982e-07,0.761719
122.5,9.3312,3.65908e-05,0.000787972,7.18961e-05,1.3368e-07,0.79447
125,9.3322,3.66559e-05,0.000816539,7.46587e-05,1.1287e-07,0.826465
127.5,9.33273,3.66904e-05,0.000845553,7.73972e-05,9.26276e-08,0.857587
130,9.33281,3.66954e-05,0.000875012,8.01066e-05,7.30226e-08,0.887729
132.5,9.33245,3.66721e-05,0.000904913,8.27822e-05,5.41167e-08,0.916797
135,9.33168,3.66218e-05,0.000935254,8.54194e-05,3.59648e-08,0.944705
137.5,9.33051,3.65457e-05,0.000966034,8.80144e-05,1.8614e-08,0.971381
140,9.32895,3.64452e-05,0.000997249,9.05635e-05,2.10252e-09,0.996767
142.5,9.32735,3.63419e-05,0.00102892,9.31264e-05,0,1.02207
145,9.32575,3.62391e-05,0.00106104,9.57119e-05,0,1.04747
147.5,9.32415,3.61366e-05,0.00109362,9.83195e-05,0,1.07297
150,9.32255,3.60346e-05,0.00112664,0.000100948,0,1.09855
152.5,9.32094,3.5933e-05,0.00116011,0.000103598,0,1.12421
155,9.31934,3.58319e-05,0.00119402,0.000106268,0,1.14993
157.5,9.31774,3.57311e-05,0.00122836,0.000108957,0,1.17572
160,9.31614,3.56308e-05,0.00126315,0.000111666,0,1.20156
162.5,9.31453,3.5531e-05,0.00129836,0.000114393,0,1.22746
165,9.31293,3.54315e-05,0.001334,0.000117138,0,1.25339
167.5,9.31133,3.53325e-05,0.00137006,0.0001199,0,1.27936
170,9.30973,3.52339e-05,0.00140655,0.000122679,0,1.30536
172.5,9.30813,3.51358e-05,0.00144346,0.000125474,0,1.33139
175,9.30652,3.5038e-05,0.00148078,0.000128285,0,1.35743
177.5,9.30492,3.49407e-05,0.00151851,0.000131111,0,1.38348
180,9.30332,3.48438e-05,0.00155665,0.000133952,0,1.40953
182.5,9.30172,3.47473e-05,0.0015952,0.000136807,0,1.43559
185,9.30012,3.46513e-05,0.00163415,0.000139675,0,1.46164
187.5,9.29852,3.45556e-05,0.0016735,0.000142557,0,1.48767
190,9.29692,3.44604e-05,0.00171325,0.000145451,0,1.51369
192.5,9.29532,3.43656e-05,0.00175339,0.000148357,0,1.53969
195,9.29372,3.42712e-05,0.00179392,0.000151275,0,1.56565
197.5,9.29212,3.41771e-05,0.00183484,0.000154203,0,1.59159
200,9.29052,3.40835e-05,0.00187614,0.000157143,0,1.61748
202.5,9.28892,3.39903e-05,0.00191783,0.000160092,0,1.64333
205,9.28732,3.38975e-05,0.00195989,0.000163051,0,1.66913
207.5,9.28572,3.3805e-05,0.00200233,0.000166019,0,1.69488
210,9.28412,3.3713e-05,0.00204514,0.000168996,0,1.72058
212.5,9.28252,3.36213e-05,0.00208831,0.000171981,0,1.74621
215,9.28092,3.353e-05,0.00213186,0.000174974,0,1.77177
217.5,9.27932,3.34391e-05,0.00217577,0.000177974,0,1.79726
220,9.27772,3.33485e-05,0.00222004,0.000180981,0,1.82268
222.5,9.27612,3.32583e-05,0.00226467,0.000183995,0,1.84802
225,9.27452,3.31685e-05,0.00230965,0.000187014,0,1.87327
227.5,9.27292,3.30791e-05,0.00235498,0.000190039,0,1.89844
230,9.27132,3.299e-05,0.00240066,0.000193069,0,1.92351
232.5,9.26972,3.29012e-05,0.00244669,0.000196104,0,1.94849
235,9.26811,3.28128e-05,0.00249306,0.000199143,0,1.97337
237.5,9.26651,3.27248e-05,0.00253978,0.000202186,0,1.99815
240,9.26491,3.26371e-05,0.00258683,0.000205232,0,2.02282
242.5,9.26331,3.25497e-05,0.00263421,0.000208282,0,2.04738
245,9.2617,3.24627e-05,0.00268193,0.000211334,0,2.07182
247.5,9.2601,3.2376e-05,0.00272997,0.000214388,0,2.09615
250,9.25849,3.22896e-05,0.00277834,0.000217444,0,2.12036
252.5,9.25689,3.22036e-05,0.00282704,0.000220501,0,2.14445
255,9.25528,3.21179e-05,0.00287605,0.00022356,0,2.16841
257.5,9.25368,3.20325e-05,0.00292539,0.000226619,0,2.19224
260,9.25207,3.19474e-05,0.00297504,0.000229679,0,2.21593
262.5,9.25046,3.18627e-05,0.003025,0.000232738,0,2.23949
265,9.24885,3.17783e-05,0.00307527,0.000235797,0,2.26292
267.5,9.24724,3.16942e-05,0.00312585,0.000238856,0,2.2862
270,9.24563,3.16104e-05,0.00317673,0.000241913,0,2.30935
272.5,9.24402,3.15269e-05,0.00322791,0.000244969,0,2.33235
275,9.24241,3.14437e-05,0.0032794,0.000248024,0,2.3552
277.5,9.2408,3.13609e-05,0.00333118,0.000251076,0,2.3779
280,9.23919,3.12784e-05,0.00338325,0.000254126,0,2.40045
282.5,9.23758,3.11962e-05,0.00343562,0.000257173,0,2.42286
285,9.23596,3.11143e-05,0.00348827,0.000260218,0,2.4451
287.5,9.23435,3.10327e-05,0.00354121,0.000263259,0,2.46719
290,9.23273,3.09514e-05,0.00359444,0.000266296,0,2.48912
292.5,9.23112,3.08705e-05,0.00364794,0.00026933,0,2.5109
295,9.2295,3.07898e-05,0.00370173,0.00027236,0,2.53251
297.5,9.22789,3.07095e-05,0.00375579,0.000275385,0,2.55396
300,9.22627,3.06295e-05,0.00381012,0.000278406,0,2.57524
302.5,9.22466,3.05498e-05,0.00386473,0.000281421,0,2.59636
305,9.22304,3.04703e-05,0.0039196,0.000284432,0,2.61731
307.5,9.22142,3.03912e-05,0.00397474,0.000287436,0,2.63809
310,9.2198,3.03124e-05,0.00403014,0.000290436,0,2.65871
312.5,9.21818,3.02339e-05,0.0040858,0.000293429,0,2.67915
315,9.21656,3.01557e-05,0.00414172,0.000296415,0,2.69942
317.5,9.21494,3.00778e-05,0.0041979,0.000299396,0,2.71952
320,9.21332,3.00002e-05,0.00425433,0.000302369,0,2.73944
322.5,9.2117,2.99229e-05,0.00431101,0.000305336,0,2.75919
325,9.21008,2.98459e-05,0.00436794,0.000308295,0,2.77876
327.5,9.20846,2.97692e-05,0.00442512,0.000311247,0,2.79816
330,9.20684,2.96928e-05,0.00448254,0.000314191,0,2.81738
332.5,9.20521,2.96167e-05,0.00454021,0.000317127,0,2.83642
335,9.20359,2.95409e-05,0.00459811,0.000320055,0,2.85528
337.5,9.20197,2.94654e-05,0.00465625,0.000322974,0,2.87396
340,9.20034,2.93902e-05,0.00471462,0.000325885,0,2.89246
342.5,9.19872,2.93152e-05,0.00477323,0.000328787,0,2.91077
345,9.19709,2.92406e-05,0.00483207,0.000331681,0,2.92891
347.5,9.19546,2.91662e-05,0.00489113,0.000334565,0,2.94686
350,9.19384,2.90921e-05,0.00495042,0.000337439,0,2.96464
352.5,9.19221,2.90184e-05,0.00500993,0.000340304,0,2.98222
355,9.19058,2.89449e-05,0.00506967,0.000343159,0,2.99963
357.5,9.18896,2.88717e-05,0.00512962,0.000346004,0,3.01685
360,9.18733,2.87987e-05,0.00518979,0.000348839,0,3.03388
362.5,9.1857,2.87261e-05,0.00525017,0.000351664,0,3.05074
365,9.18407,2.86537e-05,0.00531077,0.000354478,0,3.0674
367.5,9.18244,2.85816e-05,0.00537157,0.000357282,0,3.08388
370,9.18081,2.85098e-05,0.00543259,0.000360074,0,3.10018
372.5,9.17918,2.84383e-05,0.0054938,0.000362856,0,3.11629
375,9.17755,2.83671e-05,0.00555523,0.000365626,0,3.13222
377.5,9.17592,2.82961e-05,0.00561685,0.000368385,0,3.14796
380,9.17429,2.82254e-05,0.00567867,0.000371133,0,3.16351
382.5,9.17266,2.8155e-05,0.00574069,0.000373868,0,3.17888
385,9.17103,2.80849e-05,0.0058029,0.000376592,0,3.19407
387.5,9.16939,2.8015e-05,0.00586531,0.000379304,0,3.20906
390,9.16776,2.79454e-05,0.0059279,0.000382004,0,3.22388
392.5,9.16613,2.78761e-05,0.00599069,0.000384691,0,3.2385
395,9.16449,2.7807e-05,0.00605366,0.000387367,0,3.25295
397.5,9.16286,2.77382e-05,0.00611681,0.000390029,0,3.2672
400,9.16122,2.76697e-05,0.00618015,0.000392679,0,3.28127
402.5,9.15959,2.76015e-05,0.00624367,0.000395316,0,3.29516
405,9.15795,2.75335e-05,0.00630736,0.00039794,0,3.30887
407.5,9.15632,2.74658e-05,0.00637123,0.000400551,0,3.32238
410,9.15468,2.73983e-05,0.00643528,0.000403149,0,3.33572
412.5,9.15304,2.73311e-05,0.0064995,0.000405733,0,3.34887
415,9.1514,2.72642e-05,0.00656388,0.000408305,0,3.36184
417.5,9.14977,2.71975e-05,0.00662844,0.000410862,0,3.37462
420,9.14813,2.71311e-05,0.00669316,0.000413406,0,3.38723
422.5,9.14649,2.70649e-05,0.00675805,0.000415936,0,3.39965
425,9.14485,2.6999e-05,0.00682309,0.000418452,0,3.41189
427.5,9.14321,2.69334e-05,0.0068883,0.000420955,0,3.42394
430,9.14157,2.6868e-05,0.00695367,0.000423443,0,3.43582
432.5,9.13993,2.68029e-05,0.00701919,0.000425917,0,3.44752
435,9.13829,2.6738e-05,0.00708487,0.000428377,0,3.45904
437.5,9.13665,2.66734e-05,0.0071507,0.000430822,0,3.47037
440,9.13501,2.6609e-05,0.00721668,0.000433253,0,3.48153
442.5,9.13337,2.65449e-05,0.00728281,0.000435669,0,3.49251
445,9.13172,2.6481e-05,0.00734909,0.000438071,0,3.50332
447.5,9.13008,2.64174e-05,0.00741551,0.000440458,0,3.51394
450,9.12844,2.6354e-05,0.00748208,0.00044283,0,3.52439
452.5,9.12679,2.62909e-05,0.00754878,0.000445188,0,3.53467
455,9.12515,2.6228e-05,0.00761563,0.00044753,0,3.54476
457.5,9.12351,2.61654e-05,0.00768262,0.000449857,0,3.55469
460,9.12186,2.6103e-05,0.00774974,0.000452169,0,3.56444
462.5,9.12022,2.60408e-05,0.00781699,0.000454466,0,3.57402
465,9.11857,2.59789e-05,0.00788438,0.000456748,0,3.58342
467.5,9.11692,2.59172e-05,0.0079519,0.000459015,0,3.59265
470,9.11528,2.58558e-05,0.00801954,0.000461266,0,3.60171
472.5,9.11363,2.57946e-05,0.00808732,0.000463501,0,3.61061
475,9.11198,2.57336e-05,0.00815522,0.000465721,0,3.61933
477.5,9.11034,2.56729e-05,0.00822324,0.000467926,0,3.62788
480,9.10869,2.56124e-05,0.00829138,0.000470115,0,3.63626
482.5,9.10704,2.55522e-05,0.00835965,0.000472288,0,3.64448
485,9.10539,2.54922e-05,0.00842803,0.000474446,0,3.65253
487.5,9.10374,2.54324e-05,0.00849653,0.000476587,0,3.66041
490,9.10209,2.53729e-05,0.00856515,0.000478713,0,3.66813
492.5,9.10044,2.53135e-05,0.00863388,0.000480823,0,3.67569
495,9.09879,2.52545e-05,0.00870272,0.000482918,0,3.68308
497.5,9.09714,2.51956e-05,0.00877167,0.000484996,0,3.69031
500,9.09549,2.5137e-05,0.00884073,0.000487058,0,3.69738
502.5,9.09383,2.50786e-05,0.0089099,0.000489104,0,3.70428
505,9.09218,2.50204e-05,0.00897917,0.000491134,0,3.71103
507.5,9.09053,2.49624e-05,0.00904855,0.000493148,0,3.71761
510,9.08888,2.49047e-05,0.00911803,0.000495146,0,3.72404
512.5,9.08722,2.48472e-05,0.00918761,0.000497127,0,3.73031
515,9.08557,2.47899e-05,0.00925728,0.000499093,0,3.73643
517.5,9.08391,2.47329e-05,0.00932706,0.000501042,0,3.74239
520,9.08226,2.4676e-05,0.00939693,0.000502975,0,3.74819
522.5,9.0806,2.46194e-05,0.00946689,0.000504892,0,3.75384
525,9.07895,2.4563e-05,0.00953695,0.000506792,0,3.75934
527.5,9.07729,2.45068e-05,0.0096071,0.000508676,0,3.76468
530,9.07564,2.44509e-05,0.00967734,0.000510543,0,3.76988
532.5,9.07398,2.43951e-05,0.00974766,0.000512394,0,3.77492
535,9.07232,2.43396e-05,0.00981808,0.000514229,0,3.77981
537.5,9.07066,2.42843e-05,0.00988857,0.000516048,0,3.78456
540,9.069,2.42292e-05,0.00995916,0.00051785,0,3.78916
542.5,9.06735,2.41743e-05,0.0100298,0.000519635,0,3.79361
545,9.06569,2.41196e-05,0.0101006,0.000521404,0,3.79791
547.5,9.06403,2.40651e-05,0.0101714,0.000523157,0,3.80207
550,9.06237,2.40109e-05,0.0102423,0.000524893,0,3.80609
552.5,9.06071,2.39568e-05,0.0103133,0.000526612,0,3.80996
555,9.05904,2.3903e-05,0.0103843,0.000528315,0,3.81369
557.5,9.05738,2.38494e-05,0.0104554,0.000530002,0,3.81729
560,9.05572,2.37959e-05,0.0105266,0.000531672,0,3.82074
562.5,9.05406,2.37427e-05,0.0105979,0.000533326,0,3.82405
565,9.0524,2.36897e-05,0.0106692,0.000534963,0,3.82722
567.5,9.05073,2.36369e-05,0.0107406,0.000536583,0,3.83026
570,9.04907,2.35843e-05,0.0108121,0.000538187,0,3.83316
572.5,9.0474,2.35319e-05,0.0108836,0.000539775,0,3.83592
575,9.04574,2.34797e-05,0.0109552,0.000541346,0,3.83855
577.5,9.04408,2.34277e-05,0.0110269,0.000542901,0,3.84105
580,9.04241,2.33759e-05,0.0110986,0.000544439,0,3.84342
582.5,9.04074,2.33243e-05,0.0111704,0.00054596,0,3.84565
585,9.03908,2.32729e-05,0.0112422,0.000547466,0,3.84776
587.5,9.03741,2.32217e-05,0.0113141,0.000548954,0,3.84973
590,9.03574,2.31707e-05,0.0113861,0.000550426,0,3.85157
592.5,9.03407,2.31199e-05,0.0114581,0.000551882,0,3.85329
595,9.03241,2.30693e-05,0.0115302,0.000553321,0,3.85488
597.5,9.03074,2.30188e-05,0.0116023,0.000554744,0,3.85635
600,9.02907,2.29686e-05,0.0116744,0.000556151,0,3.85769
602.5,9.0274,2.29186e-05,0.0117466,0.000557541,0,3.85891
605,9.02573,2.28687e-05,0.0118189,0.000558915,0,3.86
607.5,9.02406,2.28191e-05,0.0118912,0.000560272,0,3.86098
610,9.02239,2.27696e-05,0.0119635,0.000561613,0,3.86183
612.5,9.02071,2.27203e-05,0.0120359,0.000562938,0,3.86256
615,9.01904,2.26713e-05,0.0121084,0.000564247,0,3.86318
617.5,9.01737,2.26224e-05,0.0121809,0.000565539,0,3.86367
620,9.0157,2.25737e-05,0.0122534,0.000566815,0,3.86405
622.5,9.01402,2.25251e-05,0.0123259,0.000568074,0,3.86432
625,9.01235,2.24768e-05,0.0123985,0.000569318,0,3.86447
627.5,9.01067,2.24286e-05,0.0124711,0.000570545,0,3.8645
630,9.009,2.23807e-05,0.0125438,0.000571757,0,3.86442
632.5,9.00732,2.23329e-05,0.0126165,0.000572952,0,3.86423
635,9.00565,2.22853e-05,0.0126892,0.000574131,0,3.86393
637.5,9.00397,2.22379e-05,0.012762,0.000575294,0,3.86352
640,9.00229,2.21906e-05,0.0128348,0.00057644,0,3.863
642.5,9.00062,2.21436e-05,0.0129076,0.000577571,0,3.86237
645,8.99894,2.20967e-05,0.0129805,0.000578686,0,3.86163
647.5,8.99726,2.205e-05,0.0130534,0.000579785,0,3.86079
650,8.99558,2.20035e-05,0.0131263,0.000580868,0,3.85984
652.5,8.9939,2.19571e-05,0.0131992,0.000581935,0,3.85879
655,8.99222,2.1911e-05,0.0132722,0.000582987,0,3.85763
657.5,8.99054,2.1865e-05,0.0133451,0.000584022,0,3.85637
660,8.98886,2.18192e-05,0.0134181,0.000585042,0,3.85501
662.5,8.98718,2.17735e-05,0.0134912,0.000586046,0,3.85355
665,8.98549,2.17281e-05,0.0135642,0.000587034,0,3.85198
667.5,8.98381,2.16828e-05,0.0136373,0.000588007,0,3.85032
670,8.98213,2.16376e-05,0.0137103,0.000588964,0,3.84856
672.5,8.98044,2.15927e-05,0.0137834,0.000589906,0,3.84671
675,8.97876,2.15479e-05,0.0138565,0.000590832,0,3.84476
677.5,8.97707,2.15033e-05,0.0139297,0.000591742,0,3.84271
680,8.97539,2.14589e-05,0.0140028,0.000592637,0,3.84057
682.5,8.9737,2.14146e-05,0.0140759,0.000593516,0,3.83833
685,8.97202,2.13705e-05,0.0141491,0.000594381,0,3.836
687.5,8.97033,2.13265e-05,0.0142223,0.000595229,0,3.83358
690,8.96864,2.12828e-05,0.0142954,0.000596063,0,3.83107
692.5,8.96695,2.12392e-05,0.0143686,0.000596881,0,3.82847
695,8.96526,2.11957e-05,0.0144418,0.000597684,0,3.82578
697.5,8.96357,2.11525e-05,0.014515,0.000598472,0,3.82301
700,8.96188,2.11094e-05,0.0145882,0.000599245,0,3.82014
702.5,8.96019,2.10664e-05,0.0146614,0.000600003,0,3.81719
705,8.9585,2.10236e-05,0.0147346,0.000600745,0,3.81415
707.5,8.95681,2.0981e-05,0.0148078,0.000601473,0,3.81103
710,8.95512,2.09385e-05,0.0148811,0.000602186,0,3.80783
712.5,8.95343,2.08962e-05,0.0149543,0.000602884,0,3.80454
715,8.95173,2.08541e-05,0.0150275,0.000603567,0,3.80117
717.5,8.95004,2.08121e-05,0.0151007,0.000604235,0,3.79772
720,8.94834,2.07703e-05,0.0151739,0.000604889,0,3.79418
722.5,8.94665,2.07286e-05,0.0152471,0.000605527,0,3.79057
725,8.94495,2.06871e-05,0.0153203,0.000606152,0,3.78688
727.5,8.94326,2.06458e-05,0.0153935,0.000606761,0,3.78311
730,8.94156,2.06046e-05,0.0154667,0.000607356,0,3.77927
732.5,8.93986,2.05635e-05,0.0155399,0.000607937,0,3.77535
735,8.93817,2.05227e-05,0.015613,0.000608503,0,3.77135
737.5,8.93647,2.04819e-05,0.0156862,0.000609055,0,3.76728
740,8.93477,2.04414e-05,0.0157594,0.000609593,0,3.76313
742.5,8.93307,2.04009e-05,0.0158325,0.000610116,0,3.75892
745,8.93137,2.03607e-05,0.0159056,0.000610625,0,3.75463
747.5,8.92967,2.03205e-05,0.0159788,0.00061112,0,3.75026
750,8.92796,2.02806e-05,0.0160519,0.0006116,0,3.74583
752.5,8.92626,2.02408e-05,0.0161249,0.000612067,0,3.74133
755,8.92456,2.02011e-05,0.016198,0.00061252,0,3.73676
757.5,8.92286,2.01616e-05,0.0162711,0.000612958,0,3.73212
760,8.92115,2.01222e-05,0.0163441,0.000613383,0,3.72741
762.5,8.91945,2.0083e-05,0.0164172,0.000613794,0,3.72264
765,8.91774,2.00439e-05,0.0164902,0.000614191,0,3.7178
767.5,8.91604,2.0005e-05,0.0165632,0.000614575,0,3.7129
770,8.91433,1.99662e-05,0.0166361,0.000614945,0,3.70793
772.5,8.91262,1.99276e-05,0.0167091,0.000615301,0,3.7029
775,8.91092,1.98891e-05,0.016782,0.000615643,0,3.6978
777.5,8.90921,1.98507e-05,0.0168549,0.000615973,0,3.69265
780,8.9075,1.98125e-05,0.0169278,0.000616288,0,3.68743
782.5,8.90579,1.97745e-05,0.0170006,0.000616591,0,3.68215
785,8.90408,1.97365e-05,0.0170735,0.00061688,0,3.67681
787.5,8.90237,1.96988e-05,0.0171463,0.000617155,0,3.67142
790,8.90066,1.96611e-05,0.017219,0.000617418,0,3.66596
792.5,8.89894,1.96236e-05,0.0172918,0.000617667,0,3.66045
795,8.89723,1.95863e-05,0.0173645,0.000617904,0,3.65488
797.5,8.89552,1.95491e-05,0.0174372,0.000618127,0,3.64925
800,8.8938,1.9512e-05,0.0175099,0.000618337,0,3.64357
802.5,8.89209,1.94751e-05,0.0175825,0.000618534,0,3.63783
805,8.89037,1.94383e-05,0.0176551,0.000618719,0,3.63204
807.5,8.88865,1.94016e-05,0.0177277,0.000618891,0,3.6262
810,8.88694,1.93651e-05,0.0178002,0.00061905,0,3.6203
812.5,8.88522,1.93287e-05,0.0178727,0.000619196,0,3.61435
815,8.8835,1.92924e-05,0.0179452,0.00061933,0,3.60835
817.5,8.88178,1.92563e-05,0.0180177,0.000619451,0,3.6023
820,8.88006,1.92203e-05,0.0180901,0.00061956,0,3.5962
822.5,8.87834,1.91845e-05,0.0181624,0.000619656,0,3.59005
825,8.87662,1.91488e-05,0.0182348,0.00061974,0,3.58386
827.5,8.8749,1.91132e-05,0.0183071,0.000619811,0,3.57761
830,8.87318,1.90777e-05,0.0183793,0.000619871,0,3.57132
832.5,8.87145,1.90424e-05,0.0184515,0.000619918,0,3.56498
835,8.86973,1.90072e-05,0.0185237,0.000619953,0,3.55859
837.5,8.86801,1.89722e-05,0.0185959,0.000619976,0,3.55216
840,8.86628,1.89373e-05,0.018668,0.000619987,0,3.54568
