Time,pH,mCa,mTIC,mCO3,rdiss,Omega
0,6,0,1.38772e-05,2.00234e-10,1.54e-06,0
1.5,6.57321,3.75168e-06,1.76193e-05,1.93102e-09,8.87782e-07,2.18783e-06
3,6.96891,6.6045e-06,2.0452e-05,7.18633e-09,7.45595e-07,1.43333e-05
4.5,7.43574,9.10978e-06,2.29287e-05,2.70514e-08,6.82582e-07,7.44215e-05
6,8.07403,1.14418e-05,2.52249e-05,1.36879e-07,6.57194e-07,0.000472967
7.5,8.46924,1.37052e-05,2.74461e-05,3.71112e-07,6.52018e-07,0.001536
9,8.68256,1.59276e-05,2.96203e-05,6.50846e-07,6.49808e-07,0.00313061
10.5,8.82336,1.81132e-05,3.17521e-05,9.57997e-07,6.47923e-07,0.00524035
12,8.92721,2.02629e-05,3.38427e-05,1.28729e-06,6.45924e-07,0.00787732
13.5,9.00886,2.23766e-05,3.58927e-05,1.63551e-06,6.43678e-07,0.0110522
15,9.07574,2.44544e-05,3.79023e-05,2.00005e-06,6.41136e-07,0.0147706
16.5,9.1321,2.64958e-05,3.98714e-05,2.37865e-06,6.38273e-07,0.019033
18,9.1806,2.85005e-05,4.18e-05,2.76925e-06,6.3508e-07,0.023835
19.5,9.22299,3.04681e-05,4.36881e-05,3.16998e-06,6.31558e-07,0.0291676
21,9.26051,3.23982e-05,4.55355e-05,3.57908e-06,6.2771e-07,0.0350181
22.5,9.29405,3.42905e-05,4.73422e-05,3.99495e-06,6.23543e-07,0.04137
24,9.32427,3.61445e-05,4.9108e-05,4.41609e-06,6.19069e-07,0.0482038
25.5,9.3517,3.79601e-05,5.0833e-05,4.84111e-06,6.14301e-07,0.0554974
27,9.37673,3.97369e-05,5.25171e-05,5.26872e-06,6.09253e-07,0.0632265
28.5,9.39968,4.14746e-05,5.41603e-05,5.69772e-06,6.03942e-07,0.0713648
30,9.42083,4.31733e-05,5.57626e-05,6.12701e-06,5.98386e-07,0.0798847
31.5,9.44037,4.48326e-05,5.73243e-05,6.55557e-06,5.92602e-07,0.0887574
33,9.45849,4.64527e-05,5.88453e-05,6.98245e-06,5.8661e-07,0.0979533
34.5,9.47535,4.80335e-05,6.0326e-05,7.40681e-06,5.80428e-07,0.107442
36,9.49106,4.9575e-05,6.17665e-05,7.82785e-06,5.74078e-07,0.117194
37.5,9.50574,5.10774e-05,6.31672e-05,8.24487e-06,5.67577e-07,0.127178
39,9.51949,5.25409e-05,6.45285e-05,8.65721e-06,5.60945e-07,0.137365
40.5,9.53238,5.39658e-05,6.58506e-05,9.0643e-06,5.54202e-07,0.147725
42,9.54449,5.53523e-05,6.71342e-05,9.46562e-06,5.47365e-07,0.158229
43.5,9.55588,5.67008e-05,6.83795e-05,9.86071e-06,5.40454e-07,0.168849
45,9.56662,5.80117e-05,6.95873e-05,1.02492e-05,5.33485e-07,0.179558
46.5,9.57675,5.92855e-05,7.07581e-05,1.06306e-05,5.26476e-07,0.19033
48,9.58631,6.05226e-05,7.18924e-05,1.10048e-05,5.19442e-07,0.201141
49.5,9.59535,6.17236e-05,7.2991e-05,1.13715e-05,5.12399e-07,0.211967
51,9.6039,6.28891e-05,7.40545e-05,1.17304e-05,5.05361e-07,0.222786
52.5,9.612,6.40197e-05,7.50836e-05,1.20814e-05,4.98341e-07,0.233578
54,9.61968,6.51161e-05,7.60791e-05,1.24243e-05,4.91352e-07,0.244322
55.5,9.62696,6.61788e-05,7.70416e-05,1.27592e-05,4.84406e-07,0.255001
57,9.63387,6.72087e-05,7.79721e-05,1.30858e-05,4.77513e-07,0.265598
58.5,9.64044,6.82064e-05,7.88712e-05,1.34041e-05,4.70683e-07,0.276098
60,9.64668,6.91726e-05,7.97397e-05,1.37143e-05,4.63926e-07,0.286489
61.5,9.65262,7.01082e-05,8.05785e-05,1.40162e-05,4.57248e-07,0.296756
63,9.65827,7.10138e-05,8.13883e-05,1.43099e-05,4.50658e-07,0.306888
64.5,9.66365,7.18902e-05,8.21701e-05,1.45956e-05,4.44162e-07,0.316877
66,9.66878,7.27383e-05,8.29245e-05,1.48732e-05,4.37765e-07,0.326713
67.5,9.67366,7.35588e-05,8.36525e-05,1.51428e-05,4.31472e-07,0.336389
69,9.67832,7.43524e-05,8.43548e-05,1.54047e-05,4.25288e-07,0.345898
70.5,9.68277,7.51199e-05,8.50322e-05,1.56589e-05,4.19217e-07,0.355235
72,9.68702,7.58622e-05,8.56855e-05,1.59055e-05,4.1326e-07,0.364395
73.5,9.69107,7.65799e-05,8.63156e-05,1.61447e-05,4.0742e-07,0.373374
75,9.69495,7.72739e-05,8.69231e-05,1.63766e-05,4.017e-07,0.38217
76.5,9.69865,7.79449e-05,8.7509e-05,1.66015e-05,3.96101e-07,0.390781
78,9.70219,7.85936e-05,8.80738e-05,1.68194e-05,3.90622e-07,0.399206
79.5,9.70558,7.92207e-05,8.86183e-05,1.70305e-05,3.85266e-07,0.407443
81,9.70883,7.9827e-05,8.91434e-05,1.72351e-05,3.80031e-07,0.415494
82.5,9.71193,8.04132e-05,8.96496e-05,1.74333e-05,3.74918e-07,0.423357
84,9.71491,8.09799e-05,9.01376e-05,1.76252e-05,3.69925e-07,0.431035
85.5,9.71776,8.15279e-05,9.06082e-05,1.78111e-05,3.65052e-07,0.438528
87,9.7205,8.20577e-05,9.1062e-05,1.79911e-05,3.60299e-07,0.445839
88.5,9.72312,8.25701e-05,9.14996e-05,1.81654e-05,3.55662e-07,0.452969
90,9.72564,8.30656e-05,9.19217e-05,1.83342e-05,3.51141e-07,0.459922
91.5,9.72806,8.35448e-05,9.23288e-05,1.84977e-05,3.46734e-07,0.466699
93,9.73038,8.40084e-05,9.27215e-05,1.8656e-05,3.42439e-07,0.473304
94.5,9.73261,8.44569e-05,9.31004e-05,1.88092e-05,3.38255e-07,0.47974
96,9.73476,8.48909e-05,9.3466e-05,1.89576e-05,3.34177e-07,0.48601
97.5,9.73682,8.53109e-05,9.38189e-05,1.91014e-05,3.30206e-07,0.492118
99,9.73881,8.57174e-05,9.41595e-05,1.92406e-05,3.26338e-07,0.498067
100.5,9.74072,8.6111e-05,9.44884e-05,1.93755e-05,3.2257e-07,0.503861
102,9.74255,8.6492e-05,9.4806e-05,1.95061e-05,3.18901e-07,0.509504
103.5,9.74432,8.68611e-05,9.51128e-05,1.96327e-05,3.15329e-07,0.514999
105,9.74603,8.72186e-05,9.54092e-05,1.97554e-05,3.11849e-07,0.52035
106.5,9.74768,8.7565e-05,9.56957e-05,1.98743e-05,3.08461e-07,0.525561
108,9.74926,8.79007e-05,9.59725e-05,1.99896e-05,3.05161e-07,0.530635
109.5,9.75079,8.82261e-05,9.62402e-05,2.01014e-05,3.01948e-07,0.535578
111,9.75227,8.85416e-05,9.64991e-05,2.02097e-05,2.98818e-07,0.540391
112.5,9.7537,8.88476e-05,9.67496e-05,2.03149e-05,2.9577e-07,0.545079
114,9.75507,8.91444e-05,9.6992e-05,2.04169e-05,2.928e-07,0.549646
115.5,9.7564,8.94324e-05,9.72266e-05,2.05158e-05,2.89908e-07,0.554095
117,9.75769,8.9712e-05,9.74537e-05,2.06119e-05,2.87089e-07,0.55843
118.5,9.75894,8.99834e-05,9.76738e-05,2.07052e-05,2.84342e-07,0.562654
120,9.76014,9.0247e-05,9.78869e-05,2.07958e-05,2.81666e-07,0.566771
121.5,9.76131,9.0503e-05,9.80935e-05,2.08838e-05,2.79056e-07,0.570784
123,9.76243,9.07518e-05,9.82938e-05,2.09693e-05,2.76513e-07,0.574696
124.5,9.76353,9.09936e-05,9.84881e-05,2.10524e-05,2.74033e-07,0.578511
126,9.76459,9.12287e-05,9.86765e-05,2.11331e-05,2.71614e-07,0.582231
127.5,9.76561,9.14573e-05,9.88594e-05,2.12117e-05,2.69254e-07,0.58586
129,9.76661,9.16798e-05,9.9037e-05,2.12881e-05,2.66952e-07,0.5894
130.5,9.76758,9.18962e-05,9.92094e-05,2.13624e-05,2.64706e-07,0.592855
132,9.76851,9.21069e-05,9.93768e-05,2.14348e-05,2.62514e-07,0.596227
133.5,9.76942,9.2312e-05,9.95396e-05,2.15052e-05,2.60373e-07,0.599519
135,9.77031,9.25118e-05,9.96978e-05,2.15738e-05,2.58284e-07,0.602733
136.5,9.77117,9.27065e-05,9.98516e-05,2.16407e-05,2.56243e-07,0.605872
138,9.772,9.28962e-05,0.000100001,2.17058e-05,2.54249e-07,0.608939
139.5,9.77282,9.30811e-05,0.000100147,2.17693e-05,2.523e-07,0.611935
141,9.77361,9.32614e-05,0.000100289,2.18311e-05,2.50396e-07,0.614863
142.5,9.77438,9.34373e-05,0.000100427,2.18915e-05,2.48535e-07,0.617726
144,9.77512,9.3609e-05,0.000100561,2.19504e-05,2.46715e-07,0.620525
145.5,9.77585,9.37765e-05,0.000100692,2.20078e-05,2.44935e-07,0.623263
147,9.77656,9.394e-05,0.00010082,2.20639e-05,2.43194e-07,0.625941
148.5,9.77725,9.40997e-05,0.000100944,2.21187e-05,2.4149e-07,0.628562
150,9.77793,9.42557e-05,0.000101066,2.21722e-05,2.39823e-07,0.631126
151.5,9.77859,9.44081e-05,0.000101184,2.22244e-05,2.3819e-07,0.633637
153,9.77923,9.45571e-05,0.0001013,2.22755e-05,2.36592e-07,0.636095
154.5,9.77985,9.47028e-05,0.000101413,2.23254e-05,2.35026e-07,0.638503
156,9.78046,9.48452e-05,0.000101523,2.23743e-05,2.33493e-07,0.640862
157.5,9.78106,9.49846e-05,0.000101631,2.2422e-05,2.3199e-07,0.643173
159,9.78164,9.51209e-05,0.000101737,2.24687e-05,2.30517e-07,0.645439
160.5,9.78221,9.52544e-05,0.000101839,2.25145e-05,2.29073e-07,0.64766
162,9.78277,9.5385e-05,0.00010194,2.25592e-05,2.27657e-07,0.649837
163.5,9.78331,9.55129e-05,0.000102039,2.26031e-05,2.26269e-07,0.651973
165,9.78385,9.56383e-05,0.000102135,2.2646e-05,2.24906e-07,0.654068
166.5,9.78437,9.5761e-05,0.000102229,2.2688e-05,2.2357e-07,0.656124
168,9.78487,9.58813e-05,0.000102322,2.27293e-05,2.22258e-07,0.658142
169.5,9.78537,9.59993e-05,0.000102412,2.27697e-05,2.2097e-07,0.660123
171,9.78586,9.61149e-05,0.000102501,2.28093e-05,2.19705e-07,0.662068
172.5,9.78634,9.62283e-05,0.000102587,2.28481e-05,2.18463e-07,0.663978
174,9.78681,9.63396e-05,0.000102673,2.28862e-05,2.17244e-07,0.665854
175.5,9.78726,9.64487e-05,0.000102756,2.29236e-05,2.16045e-07,0.667697
177,9.78771,9.65559e-05,0.000102838,2.29603e-05,2.14867e-07,0.669509
178.5,9.78815,9.6661e-05,0.000102918,2.29963e-05,2.1371e-07,0.671289
180,9.78859,9.67642e-05,0.000102997,2.30317e-05,2.12572e-07,0.67304
181.5,9.78901,9.68656e-05,0.000103074,2.30664e-05,2.11453e-07,0.674761
183,9.78942,9.69652e-05,0.00010315,2.31005e-05,2.10352e-07,0.676453
184.5,9.78983,9.70631e-05,0.000103224,2.3134e-05,2.0927e-07,0.678118
186,9.79023,9.71592e-05,0.000103297,2.3167e-05,2.08204e-07,0.679757
187.5,9.79062,9.72537e-05,0.000103369,2.31993e-05,2.07156e-07,0.681369
189,9.79101,9.73466e-05,0.00010344,2.32312e-05,2.06125e-07,0.682955
190.5,9.79139,9.7438e-05,0.000103509,2.32625e-05,2.05109e-07,0.684517
192,9.79176,9.75278e-05,0.000103577,2.32932e-05,2.0411e-07,0.686054
193.5,9.79213,9.76162e-05,0.000103644,2.33235e-05,2.03125e-07,0.687569
195,9.79249,9.77031e-05,0.00010371,2.33533e-05,2.02156e-07,0.68906
196.5,9.79284,9.77886e-05,0.000103775,2.33826e-05,2.01201e-07,0.690529
198,9.79319,9.78728e-05,0.000103838,2.34115e-05,2.0026e-07,0.691976
199.5,9.79353,9.79557e-05,0.000103901,2.34399e-05,1.99332e-07,0.693402
201,9.79386,9.80373e-05,0.000103963,2.34678e-05,1.98419e-07,0.694808
202.5,9.79419,9.81176e-05,0.000104024,2.34954e-05,1.97518e-07,0.696193
204,9.79452,9.81967e-05,0.000104083,2.35225e-05,1.9663e-07,0.697559
205.5,9.79484,9.82746e-05,0.000104142,2.35492e-05,1.95755e-07,0.698905
207,9.79515,9.83514e-05,0.0001042,2.35756e-05,1.94891e-07,0.700233
208.5,9.79546,9.8427e-05,0.000104257,2.36015e-05,1.9404e-07,0.701543
210,9.79577,9.85016e-05,0.000104314,2.36271e-05,1.932e-07,0.702835
211.5,9.79607,9.85751e-05,0.000104369,2.36523e-05,1.92371e-07,0.704109
213,9.79636,9.86475e-05,0.000104424,2.36771e-05,1.91554e-07,0.705366
214.5,9.79665,9.87189e-05,0.000104478,2.37016e-05,1.90747e-07,0.706607
216,9.79694,9.87893e-05,0.000104531,2.37258e-05,1.89951e-07,0.707832
217.5,9.79722,9.88587e-05,0.000104583,2.37496e-05,1.89165e-07,0.709041
219,9.7975,9.89272e-05,0.000104635,2.37731e-05,1.88389e-07,0.710234
220.5,9.79777,9.89947e-05,0.000104685,2.37963e-05,1.87623e-07,0.711412
222,9.79805,9.90614e-05,0.000104736,2.38191e-05,1.86867e-07,0.712575
223.5,9.79831,9.91271e-05,0.000104785,2.38417e-05,1.8612e-07,0.713724
225,9.79857,9.9192e-05,0.000104834,2.3864e-05,1.85382e-07,0.714858
226.5,9.79883,9.9256e-05,0.000104882,2.3886e-05,1.84654e-07,0.715979
228,9.79909,9.93192e-05,0.00010493,2.39077e-05,1.83934e-07,0.717086
229.5,9.79934,9.93816e-05,0.000104977,2.39291e-05,1.83223e-07,0.71818
231,9.79959,9.94432e-05,0.000105023,2.39503e-05,1.8252e-07,0.719261
232.5,9.79984,9.95041e-05,0.000105069,2.39712e-05,1.81826e-07,0.720329
234,9.80008,9.95641e-05,0.000105114,2.39918e-05,1.81139e-07,0.721384
235.5,9.80032,9.96235e-05,0.000105159,2.40122e-05,1.80461e-07,0.722428
237,9.80055,9.96821e-05,0.000105203,2.40324e-05,1.79791e-07,0.723459
238.5,9.80079,9.97399e-05,0.000105246,2.40523e-05,1.79128e-07,0.724478
240,9.80102,9.97971e-05,0.000105289,2.40719e-05,1.78473e-07,0.725486
241.5,9.80124,9.98536e-05,0.000105332,2.40914e-05,1.77825e-07,0.726483
243,9.80147,9.99095e-05,0.000105374,2.41106e-05,1.77184e-07,0.727468
244.5,9.80169,9.99647e-05,0.000105415,2.41295e-05,1.7655e-07,0.728443
246,9.80191,0.000100019,0.000105456,2.41483e-05,1.75923e-07,0.729407
247.5,9.80213,0.000100073,0.000105496,2.41668e-05,1.75303e-07,0.730361
249,9.80234,0.000100126,0.000105537,2.41852e-05,1.7469e-07,0.731304
250.5,9.80255,0.000100179,0.000105576,2.42033e-05,1.74083e-07,0.732237
252,9.80276,0.000100231,0.000105615,2.42212e-05,1.73483e-07,0.73316
253.5,9.80296,0.000100283,0.000105654,2.4239e-05,1.72889e-07,0.734074
255,9.80317,0.000100334,0.000105692,2.42565e-05,1.72301e-07,0.734978
256.5,9.80337,0.000100384,0.00010573,2.42738e-05,1.7172e-07,0.735873
258,9.80357,0.000100434,0.000105767,2.4291e-05,1.71144e-07,0.736758
259.5,9.80376,0.000100483,0.000105804,2.43079e-05,1.70574e-07,0.737634
261,9.80396,0.000100532,0.000105841,2.43247e-05,1.7001e-07,0.738502
262.5,9.80415,0.00010058,0.000105877,2.43413e-05,1.69452e-07,0.739361
264,9.80434,0.000100628,0.000105913,2.43578e-05,1.68899e-07,0.740211
265.5,9.80453,0.000100675,0.000105948,2.4374e-05,1.68352e-07,0.741053
267,9.80471,0.000100722,0.000105983,2.43901e-05,1.6781e-07,0.741886
268.5,9.8049,0.000100768,0.000106018,2.44061e-05,1.67273e-07,0.742711
270,9.80508,0.000100814,0.000106052,2.44218e-05,1.66742e-07,0.743529
271.5,9.80526,0.000100859,0.000106086,2.44375e-05,1.66216e-07,0.744338
273,9.80544,0.000100904,0.00010612,2.44529e-05,1.65695e-07,0.74514
274.5,9.80561,0.000100948,0.000106153,2.44682e-05,1.65178e-07,0.745934
276,9.80579,0.000100992,0.000106186,2.44834e-05,1.64667e-07,0.74672
277.5,9.80596,0.000101036,0.000106219,2.44983e-05,1.6416e-07,0.7475
279,9.80613,0.000101079,0.000106251,2.45132e-05,1.63658e-07,0.748272
280.5,9.8063,0.000101121,0.000106283,2.45279e-05,1.63161e-07,0.749036
282,9.80647,0.000101163,0.000106315,2.45425e-05,1.62669e-07,0.749794
283.5,9.80663,0.000101205,0.000106346,2.45569e-05,1.62181e-07,0.750545
285,9.80679,0.000101247,0.000106377,2.45712e-05,1.61697e-07,0.751289
286.5,9.80696,0.000101288,0.000106408,2.45853e-05,1.61217e-07,0.752026
288,9.80712,0.000101328,0.000106438,2.45994e-05,1.60742e-07,0.752757
289.5,9.80728,0.000101369,0.000106468,2.46133e-05,1.60272e-07,0.753481
291,9.80743,0.000101408,0.000106498,2.4627e-05,1.59805e-07,0.754199
292.5,9.80759,0.000101448,0.000106528,2.46406e-05,1.59342e-07,0.75491
294,9.80774,0.000101487,0.000106557,2.46542e-05,1.58884e-07,0.755615
295.5,9.8079,0.000101526,0.000106586,2.46675e-05,1.58429e-07,0.756314
297,9.80805,0.000101564,0.000106615,2.46808e-05,1.57979e-07,0.757007
298.5,9.8082,0.000101602,0.000106644,2.4694e-05,1.57532e-07,0.757694
300,9.80834,0.00010164,0.000106672,2.4707e-05,1.57089e-07,0.758376
301.5,9.80849,0.000101677,0.0001067,2.47199e-05,1.5665e-07,0.759051
303,9.80864,0.000101714,0.000106728,2.47327e-05,1.56215e-07,0.759721
304.5,9.80878,0.000101751,0.000106755,2.47454e-05,1.55783e-07,0.760385
306,9.80892,0.000101787,0.000106782,2.4758e-05,1.55355e-07,0.761044
307.5,9.80907,0.000101824,0.000106809,2.47704e-05,1.5493e-07,0.761697
309,9.80921,0.000101859,0.000106836,2.47828e-05,1.54509e-07,0.762345
310.5,9.80934,0.000101895,0.000106863,2.4795e-05,1.54091e-07,0.762987
312,9.80948,0.00010193,0.000106889,2.48072e-05,1.53677e-07,0.763624
313.5,9.80962,0.000101965,0.000106915,2.48192e-05,1.53266e-07,0.764256
315,9.80975,0.000101999,0.000106941,2.48312e-05,1.52858e-07,0.764883
316.5,9.80989,0.000102034,0.000106967,2.4843e-05,1.52454e-07,0.765505
318,9.81002,0.000102068,0.000106992,2.48548e-05,1.52053e-07,0.766122
319.5,9.81015,0.000102101,0.000107017,2.48664e-05,1.51655e-07,0.766734
321,9.81028,0.000102135,0.000107042,2.4878e-05,1.5126e-07,0.767342
322.5,9.81041,0.000102168,0.000107067,2.48895e-05,1.50868e-07,0.767944
324,9.81054,0.000102201,0.000107092,2.49008e-05,1.5048e-07,0.768542
325.5,9.81067,0.000102233,0.000107116,2.49121e-05,1.50094e-07,0.769135
327,9.81079,0.000102266,0.00010714,2.49233e-05,1.49711e-07,0.769724
328.5,9.81092,0.000102298,0.000107165,2.49344e-05,1.49332e-07,0.770308
330,9.81104,0.000102329,0.000107188,2.49454e-05,1.48955e-07,0.770887
331.5,9.81117,0.000102361,0.000107212,2.49563e-05,1.48581e-07,0.771463
333,9.81129,0.000102392,0.000107235,2.49671e-05,1.48209e-07,0.772034
334.5,9.81141,0.000102423,0.000107259,2.49779e-05,1.47841e-07,0.7726
336,9.81153,0.000102454,0.000107282,2.49886e-05,1.47475e-07,0.773163
337.5,9.81165,0.000102485,0.000107305,2.49991e-05,1.47113e-07,0.773721
339,9.81177,0.000102515,0.000107327,2.50096e-05,1.46752e-07,0.774275
340.5,9.81188,0.000102545,0.00010735,2.50201e-05,1.46395e-07,0.774825
342,9.812,0.000102575,0.000107372,2.50304e-05,1.4604e-07,0.775371
343.5,9.81211,0.000102605,0.000107394,2.50407e-05,1.45687e-07,0.775913
345,9.81223,0.000102634,0.000107416,2.50509e-05,1.45338e-07,0.776451
346.5,9.81234,0.000102663,0.000107438,2.5061e-05,1.4499e-07,0.776985
348,9.81245,0.000102692,0.00010746,2.5071e-05,1.44645e-07,0.777516
349.5,9.81257,0.000102721,0.000107481,2.5081e-05,1.44303e-07,0.778042
351,9.81268,0.000102749,0.000107503,2.50908e-05,1.43963e-07,0.778565
352.5,9.81279,0.000102778,0.000107524,2.51007e-05,1.43626e-07,0.779084
354,9.81289,0.000102806,0.000107545,2.51104e-05,1.4329e-07,0.7796
355.5,9.813,0.000102834,0.000107566,2.51201e-05,1.42958e-07,0.780111
357,9.81311,0.000102861,0.000107587,2.51297e-05,1.42627e-07,0.78062
358.5,9.81322,0.000102889,0.000107607,2.51392e-05,1.42299e-07,0.781125
360,9.81332,0.000102916,0.000107628,2.51487e-05,1.41973e-07,0.781626
361.5,9.81343,0.000102943,0.000107648,2.51581e-05,1.41649e-07,0.782124
363,9.81353,0.00010297,0.000107668,2.51674e-05,1.41328e-07,0.782618
364.5,9.81363,0.000102997,0.000107688,2.51766e-05,1.41009e-07,0.783109
366,9.81374,0.000103023,0.000107708,2.51858e-05,1.40692e-07,0.783597
367.5,9.81384,0.00010305,0.000107728,2.5195e-05,1.40377e-07,0.784081
369,9.81394,0.000103076,0.000107747,2.5204e-05,1.40064e-07,0.784563
370.5,9.81404,0.000103102,0.000107767,2.52131e-05,1.39753e-07,0.785041
372,9.81414,0.000103128,0.000107786,2.5222e-05,1.39444e-07,0.785515
373.5,9.81424,0.000103153,0.000107805,2.52309e-05,1.39138e-07,0.785987
375,9.81434,0.000103179,0.000107824,2.52397e-05,1.38833e-07,0.786456
376.5,9.81443,0.000103204,0.000107843,2.52485e-05,1.3853e-07,0.786921
378,9.81453,0.000103229,0.000107862,2.52572e-05,1.3823e-07,0.787383
379.5,9.81463,0.000103254,0.00010788,2.52658e-05,1.37931e-07,0.787843
381,9.81472,0.000103279,0.000107899,2.52744e-05,1.37634e-07,0.788299
382.5,9.81482,0.000103303,0.000107917,2.52829e-05,1.37339e-07,0.788753
384,9.81491,0.000103328,0.000107936,2.52914e-05,1.37046e-07,0.789203
385.5,9.815,0.000103352,0.000107954,2.52998e-05,1.36755e-07,0.789651
387,9.8151,0.000103376,0.000107972,2.53082e-05,1.36466e-07,0.790096
388.5,9.81519,0.0001034,0.00010799,2.53165e-05,1.36179e-07,0.790538
390,9.81528,0.000103424,0.000108007,2.53247e-05,1.35893e-07,0.790977
391.5,9.81537,0.000103447,0.000108025,2.53329e-05,1.35609e-07,0.791414
393,9.81546,0.000103471,0.000108043,2.5341e-05,1.35327e-07,0.791848
394.5,9.81555,0.000103494,0.00010806,2.53491e-05,1.35047e-07,0.792279
396,9.81564,0.000103517,0.000108077,2.53572e-05,1.34769e-07,0.792707
397.5,9.81573,0.00010354,0.000108094,2.53651e-05,1.34492e-07,0.793133
399,9.81582,0.000103563,0.000108112,2.53731e-05,1.34217e-07,0.793556
400.5,9.8159,0.000103586,0.000108129,2.5381e-05,1.33943e-07,0.793976
402,9.81599,0.000103608,0.000108145,2.53888e-05,1.33672e-07,0.794394
403.5,9.81608,0.000103631,0.000108162,2.53966e-05,1.33402e-07,0.79481
405,9.81616,0.000103653,0.000108179,2.54043e-05,1.33133e-07,0.795223
406.5,9.81625,0.000103675,0.000108195,2.5412e-05,1.32866e-07,0.795633
408,9.81633,0.000103697,0.000108212,2.54196e-05,1.32601e-07,0.796041
409.5,9.81641,0.000103719,0.000108228,2.54272e-05,1.32337e-07,0.796447
411,9.8165,0.00010374,0.000108244,2.54348e-05,1.32075e-07,0.79685
412.5,9.81658,0.000103762,0.000108261,2.54423e-05,1.31815e-07,0.79725
414,9.81666,0.000103783,0.000108277,2.54497e-05,1.31556e-07,0.797649
415.5,9.81674,0.000103805,0.000108293,2.54571e-05,1.31298e-07,0.798045
417,9.81682,0.000103826,0.000108308,2.54645e-05,1.31042e-07,0.798438
418.5,9.8169,0.000103847,0.000108324,2.54718e-05,1.30788e-07,0.79883
420,9.81698,0.000103868,0.00010834,2.54791e-05,1.30535e-07,0.799219
421.5,9.81706,0.000103889,0.000108355,2.54863e-05,1.30283e-07,0.799606
423,9.81714,0.000103909,0.000108371,2.54935e-05,1.30033e-07,0.79999
424.5,9.81722,0.00010393,0.000108386,2.55007e-05,1.29785e-07,0.800373
426,9.8173,0.00010395,0.000108401,2.55078e-05,1.29537e-07,0.800753
427.5,9.81738,0.000103971,0.000108417,2.55148e-05,1.29292e-07,0.801131
429,9.81745,0.000103991,0.000108432,2.55218e-05,1.29047e-07,0.801507
430.5,9.81753,0.000104011,0.000108447,2.55288e-05,1.28804e-07,0.801881
432,9.81761,0.000104031,0.000108462,2.55358e-05,1.28563e-07,0.802253
