Time,pH,mCa,mTIC,mCO3,rdiss,Omega
0,6,0,1.38772e-05,2.00234e-10,1.54e-06,0
1.5,6.57321,3.75168e-06,1.76193e-05,1.93102e-09,8.87782e-07,2.18783e-06
3,6.96891,6.6045e-06,2.0452e-05,7.18633e-09,7.45595e-07,1.43333e-05
4.5,7.43574,9.10978e-06,2.29287e-05,2.70514e-08,6.82582e-07,7.44215e-05
6,8.07403,1.14418e-05,2.52249e-05,1.36879e-07,6.57194e-07,0.000472967
7.5,8.46924,1.37052e-05,2.74461e-05,3.71112e-07,6.52018e-07,0.001536
9,8.68256,1.59276e-05,2.96203e-05,6.50846e-07,6.49808e-07,0.00313061
10.5,8.82336,1.81132e-05,3.17521e-05,9.57997e-07,6.47923e-07,0.00524035
12,8.92721,2.02629e-05,3.38427e-05,1.28729e-06,6.45924e-07,0.00787732
13.5,9.00886,2.23766e-05,3.58927e-05,1.63551e-06,6.43678e-07,0.0110522
15,9.07574,2.44544e-05,3.79023e-05,2.00005e-06,6.41136e-07,0.0147706
16.5,9.1321,2.64958e-05,3.98714e-05,2.37865e-06,6.38273e-07,0.019033
18,9.1806,2.85005e-05,4.18e-05,2.76925e-06,6.3508e-07,0.023835
19.5,9.22299,3.04681e-05,4.36881e-05,3.16998e-06,6.31558e-07,0.0291676
21,9.26051,3.23982e-05,4.55355e-05,3.57908e-06,6.2771e-07,0.0350181
22.5,9.29405,3.42905e-05,4.73422e-05,3.99495e-06,6.23543e-07,0.04137
24,9.32427,3.61445e-05,4.9108e-05,4.41609e-06,6.19069e-07,0.0482038
25.5,9.3517,3.79601e-05,5.0833e-05,4.84111e-06,6.14301e-07,0.0554974
27,9.37673,3.97369e-05,5.25171e-05,5.26872e-06,6.09253e-07,0.0632265
28.5,9.39968,4.14746e-05,5.41603e-05,5.69772e-06,6.03942e-07,0.0713648
30,9.42083,4.31733e-05,5.57626e-05,6.12701e-06,5.98386e-07,0.0798847
31.5,9.44037,4.48326e-05,5.73243e-05,6.55557e-06,5.92602e-07,0.0887574
33,9.45849,4.64527e-05,5.88453e-05,6.98245e-06,5.8661e-07,0.0979533
34.5,9.47535,4.80335e-05,6.0326e-05,7.40681e-06,5.80428e-07,0.107442
36,9.49106,4.9575e-05,6.17665e-05,7.82785e-06,5.74078e-07,0.117194
37.5,9.50574,5.10774e-05,6.31672e-05,8.24487e-06,5.67577e-07,0.127178
39,9.51949,5.25409e-05,6.45285e-05,8.65721e-06,5.60945e-07,0.137365
40.5,9.53238,5.39658e-05,6.58506e-05,9.0643e-06,5.54202e-07,0.147725
42,9.54449,5.53523e-05,6.71342e-05,9.46562e-06,5.47365e-07,0.158229
43.5,9.55588,5.67008e-05,6.83795e-05,9.86071e-06,5.40454e-07,0.168849
45,9.56662,5.80117e-05,6.95873e-05,1.02492e-05,5.33485e-07,0.179558
46.5,9.57675,5.92855e-05,7.07581e-05,1.06306e-05,5.26476e-07,0.19033
48,9.58631,6.05226e-05,7.18924e-05,1.10048e-05,5.19442e-07,0.201141
49.5,9.59535,6.17236e-05,7.2991e-05,1.13715e-05,5.12399e-07,0.211967
51,9.6039,6.28891e-05,7.40545e-05,1.17304e-05,5.05361e-07,0.222786
52.5,9.612,6.40197e-05,7.50836e-05,1.20814e-05,4.98341e-07,0.233578
54,9.61968,6.51161e-05,7.60791e-05,1.24243e-05,4.91352e-07,0.244322
55.5,9.62696,6.61788e-05,7.70416e-05,1.27592e-05,4.84406e-07,0.255001
57,9.63387,6.72087e-05,7.79721e-05,1.30858e-05,4.77513e-07,0.265598
58.5,9.64044,6.82064e-05,7.88712e-05,1.34041e-05,4.70683e-07,0.276098
60,9.64668,6.91726e-05,7.97397e-05,1.37143e-05,4.63926e-07,0.286489
61.5,9.65262,7.01082e-05,8.05785e-05,1.40162e-05,4.57248e-07,0.296756
63,9.65827,7.10138e-05,8.13883e-05,1.43099e-05,4.50658e-07,0.306888
64.5,9.66365,7.18902e-05,8.21701e-05,1.45956e-05,4.44162e-07,0.316877
66,9.66878,7.27383e-05,8.29245e-05,1.48732e-05,4.37765e-07,0.326713
67.5,9.67366,7.35588e-05,8.36525e-05,1.51428e-05,4.31472e-07,0.336389
69,9.67832,7.43524e-05,8.43548e-05,1.54047e-05,4.25288e-07,0.345898
70.5,9.68277,7.51199e-05,8.50322e-05,1.56589e-05,4.19217e-07,0.355235
72,9.68702,7.58622e-05,8.56855e-05,1.59055e-05,4.1326e-07,0.364395
73.5,9.69107,7.65799e-05,8.63156e-05,1.61447e-05,4.0742e-07,0.373374
75,9.69495,7.72739e-05,8.69231e-05,1.63766e-05,4.017e-07,0.38217
76.5,9.69865,7.79449e-05,8.7509e-05,1.66015e-05,3.96101e-07,0.390781
78,9.70219,7.85936e-05,8.80738e-05,1.68194e-05,3.90622e-07,0.399206
79.5,9.70558,7.92207e-05,8.86183e-05,1.70305e-05,3.85266e-07,0.407443
81,9.70883,7.9827e-05,8.91434e-05,1.72351e-05,3.80031e-07,0.415494
82.5,9.71193,8.04132e-05,8.96496e-05,1.74333e-05,3.74918e-07,0.423357
84,9.71491,8.09799e-05,9.01376e-05,1.76252e-05,3.69925e-07,0.431035
85.5,9.71776,8.15279e-05,9.06082e-05,1.78111e-05,3.65052e-07,0.438528
87,9.7205,8.20577e-05,9.1062e-05,1.79911e-05,3.60299e-07,0.445839
88.5,9.72312,8.25701e-05,9.14996e-05,1.81654e-05,3.55662e-07,0.452969
90,9.72564,8.30656e-05,9.19217e-05,1.83342e-05,3.51141e-07,0.459922
91.5,9.72806,8.35448e-05,9.23288e-05,1.84977e-05,3.46734e-07,0.466699
93,9.73038,8.40084e-05,9.27215e-05,1.8656e-05,3.42439e-07,0.473304
94.5,9.73261,8.44569e-05,9.31004e-05,1.88092e-05,3.38254e-07,0.47974
96,9.73476,8.48909e-05,9.3466e-05,1.89576e-05,3.34177e-07,0.486011
97.5,9.73682,8.53109e-05,9.38189e-05,1.91014e-05,3.30206e-07,0.492118
99,9.73881,8.57174e-05,9.41595e-05,1.92406e-05,3.26338e-07,0.498067
100.5,9.74072,8.6111e-05,9.44884e-05,1.93755e-05,3.2257e-07,0.503861
102,9.74255,8.6492e-05,9.4806e-05,1.95061e-05,3.18901e-07,0.509504
103.5,9.74432,8.68611e-05,9.51128e-05,1.96327e-05,3.15329e-07,0.514999
105,9.74603,8.72186e-05,9.54092e-05,1.97554e-05,3.11849e-07,0.52035
106.5,9.74768,8.7565e-05,9.56957e-05,1.98743e-05,3.08461e-07,0.525561
108,9.74926,8.79007e-05,9.59725e-05,1.99896e-05,3.05161e-07,0.530635
109.5,9.75079,8.82261e-05,9.62402e-05,2.01014e-05,3.01948e-07,0.535578
111,9.75227,8.85416e-05,9.64991e-05,2.02097e-05,2.98818e-07,0.540391
112.5,9.7537,8.88476e-05,9.67496e-05,2.03149e-05,2.9577e-07,0.545079
114,9.75507,8.91444e-05,9.6992e-05,2.04169e-05,2.928e-07,0.549646
115.5,9.7564,8.94324e-05,9.72266e-05,2.05158e-05,2.89908e-07,0.554095
117,9.75769,8.9712e-05,9.74538e-05,2.06119e-05,2.87089e-07,0.55843
118.5,9.75894,8.99834e-05,9.76738e-05,2.07052e-05,2.84342e-07,0.562655
120,9.76014,9.0247e-05,9.7887e-05,2.07958e-05,2.81666e-07,0.566771
121.5,9.76131,9.0503e-05,9.80936e-05,2.08838e-05,2.79056e-07,0.570784
123,9.76243,9.07518e-05,9.82939e-05,2.09693e-05,2.76513e-07,0.574696
124.5,9.76353,9.09936e-05,9.84881e-05,2.10524e-05,2.74032e-07,0.578511
126,9.76459,9.12287e-05,9.86766e-05,2.11331e-05,2.71614e-07,0.582231
127.5,9.76561,9.14573e-05,9.88594e-05,2.12117e-05,2.69254e-07,0.58586
129,9.76661,9.16798e-05,9.9037e-05,2.12881e-05,2.66952e-07,0.589401
130.5,9.76758,9.18962e-05,9.92094e-05,2.13624e-05,2.64706e-07,0.592855
132,9.76851,9.21069e-05,9.93769e-05,2.14348e-05,2.62514e-07,0.596227
133.5,9.76942,9.2312e-05,9.95396e-05,2.15052e-05,2.60373e-07,0.599519
135,9.77031,9.25118e-05,9.96978e-05,2.15738e-05,2.58283e-07,0.602733
136.5,9.77117,9.27065e-05,9.98517e-05,2.16407e-05,2.56242e-07,0.605872
138,9.772,9.28962e-05,0.000100001,2.17058e-05,2.54249e-07,0.608939
139.5,9.77282,9.30811e-05,0.000100147,2.17693e-05,2.523e-07,0.611935
141,9.77361,9.32614e-05,0.000100289,2.18311e-05,2.50396e-07,0.614864
142.5,9.77438,9.34373e-05,0.000100427,2.18915e-05,2.48535e-07,0.617727
144,9.77512,9.3609e-05,0.000100561,2.19504e-05,2.46715e-07,0.620526
145.5,9.77585,9.37765e-05,0.000100692,2.20078e-05,2.44935e-07,0.623263
147,9.77656,9.394e-05,0.00010082,2.20639e-05,2.43194e-07,0.625941
148.5,9.77725,9.40997e-05,0.000100945,2.21187e-05,2.4149e-07,0.628562
150,9.77793,9.42557e-05,0.000101066,2.21722e-05,2.39822e-07,0.631127
151.5,9.77859,9.44082e-05,0.000101185,2.22245e-05,2.3819e-07,0.633637
153,9.77923,9.45571e-05,0.0001013,2.22755e-05,2.36592e-07,0.636096
154.5,9.77985,9.47028e-05,0.000101413,2.23255e-05,2.35026e-07,0.638504
156,9.78046,9.48453e-05,0.000101524,2.23743e-05,2.33492e-07,0.640863
157.5,9.78106,9.49846e-05,0.000101631,2.2422e-05,2.31989e-07,0.643174
159,9.78164,9.51209e-05,0.000101737,2.24688e-05,2.30517e-07,0.645439
160.5,9.78221,9.52544e-05,0.00010184,2.25145e-05,2.29073e-07,0.64766
162,9.78277,9.5385e-05,0.00010194,2.25593e-05,2.27657e-07,0.649838
163.5,9.78331,9.5513e-05,0.000102039,2.26031e-05,2.26268e-07,0.651974
165,9.78385,9.56383e-05,0.000102135,2.2646e-05,2.24906e-07,0.654069
166.5,9.78437,9.5761e-05,0.000102229,2.26881e-05,2.23569e-07,0.656125
168,9.78487,9.58814e-05,0.000102322,2.27293e-05,2.22257e-07,0.658143
169.5,9.78537,9.59993e-05,0.000102412,2.27697e-05,2.20969e-07,0.660124
171,9.78586,9.61149e-05,0.000102501,2.28093e-05,2.19705e-07,0.662069
172.5,9.78634,9.62283e-05,0.000102588,2.28481e-05,2.18463e-07,0.663979
174,9.78681,9.63396e-05,0.000102673,2.28863e-05,2.17243e-07,0.665855
175.5,9.78726,9.64487e-05,0.000102756,2.29236e-05,2.16044e-07,0.667698
177,9.78771,9.65559e-05,0.000102838,2.29603e-05,2.14866e-07,0.66951
178.5,9.78815,9.6661e-05,0.000102918,2.29964e-05,2.13709e-07,0.671291
180,9.78859,9.67643e-05,0.000102997,2.30317e-05,2.12571e-07,0.673041
181.5,9.78901,9.68657e-05,0.000103074,2.30664e-05,2.11452e-07,0.674762
183,9.78942,9.69652e-05,0.00010315,2.31006e-05,2.10351e-07,0.676455
184.5,9.78983,9.70631e-05,0.000103224,2.31341e-05,2.09268e-07,0.67812
186,9.79023,9.71592e-05,0.000103297,2.3167e-05,2.08203e-07,0.679758
187.5,9.79062,9.72537e-05,0.000103369,2.31994e-05,2.07155e-07,0.68137
189,9.79101,9.73466e-05,0.00010344,2.32312e-05,2.06124e-07,0.682957
190.5,9.79139,9.7438e-05,0.000103509,2.32625e-05,2.05108e-07,0.684519
192,9.79176,9.75278e-05,0.000103577,2.32933e-05,2.04108e-07,0.686057
193.5,9.79213,9.76162e-05,0.000103644,2.33236e-05,2.03124e-07,0.687571
195,9.79249,9.77031e-05,0.00010371,2.33534e-05,2.02154e-07,0.689062
196.5,9.79284,9.77887e-05,0.000103775,2.33827e-05,2.01199e-07,0.690531
198,9.79319,9.78728e-05,0.000103839,2.34116e-05,2.00258e-07,0.691979
199.5,9.79353,9.79557e-05,0.000103901,2.344e-05,1.99331e-07,0.693405
201,9.79386,9.80373e-05,0.000103963,2.34679e-05,1.98417e-07,0.69481
202.5,9.79419,9.81176e-05,0.000104024,2.34955e-05,1.97516e-07,0.696196
204,9.79452,9.81967e-05,0.000104084,2.35226e-05,1.96628e-07,0.697562
205.5,9.79484,9.82747e-05,0.000104143,2.35493e-05,1.95753e-07,0.698908
207,9.79515,9.83514e-05,0.000104201,2.35757e-05,1.94889e-07,0.700236
208.5,9.79546,9.84271e-05,0.000104258,2.36016e-05,1.94038e-07,0.701546
210,9.79577,9.85016e-05,0.000104314,2.36272e-05,1.93198e-07,0.702838
211.5,9.79607,9.85751e-05,0.000104369,2.36524e-05,1.92369e-07,0.704112
213,9.79636,9.86475e-05,0.000104424,2.36772e-05,1.91551e-07,0.70537
214.5,9.79665,9.87189e-05,0.000104478,2.37017e-05,1.90745e-07,0.706611
216,9.79694,9.87893e-05,0.000104531,2.37259e-05,1.89948e-07,0.707836
217.5,9.79722,9.88587e-05,0.000104583,2.37497e-05,1.89162e-07,0.709045
219,9.7975,9.89272e-05,0.000104635,2.37732e-05,1.88386e-07,0.710238
220.5,9.79777,9.89948e-05,0.000104686,2.37964e-05,1.8762e-07,0.711416
222,9.79805,9.90614e-05,0.000104736,2.38193e-05,1.86864e-07,0.71258
223.5,9.79831,9.91272e-05,0.000104786,2.38419e-05,1.86117e-07,0.713729
225,9.79858,9.9192e-05,0.000104835,2.38642e-05,1.85379e-07,0.714863
226.5,9.79883,9.92561e-05,0.000104883,2.38861e-05,1.8465e-07,0.715984
228,9.79909,9.93193e-05,0.00010493,2.39079e-05,1.83931e-07,0.717091
229.5,9.79934,9.93817e-05,0.000104977,2.39293e-05,1.83219e-07,0.718185
231,9.79959,9.94433e-05,0.000105024,2.39505e-05,1.82516e-07,0.719266
232.5,9.79984,9.95041e-05,0.00010507,2.39714e-05,1.81822e-07,0.720335
234,9.80008,9.95642e-05,0.000105115,2.3992e-05,1.81136e-07,0.72139
235.5,9.80032,9.96235e-05,0.000105159,2.40124e-05,1.80457e-07,0.722434
237,9.80055,9.96821e-05,0.000105203,2.40326e-05,1.79787e-07,0.723465
238.5,9.80079,9.974e-05,0.000105247,2.40525e-05,1.79124e-07,0.724485
240,9.80102,9.97972e-05,0.00010529,2.40721e-05,1.78468e-07,0.725493
241.5,9.80125,9.98537e-05,0.000105332,2.40916e-05,1.7782e-07,0.72649
243,9.80147,9.99096e-05,0.000105374,2.41108e-05,1.77179e-07,0.727476
244.5,9.80169,9.99647e-05,0.000105416,2.41298e-05,1.76545e-07,0.72845
246,9.80191,0.000100019,0.000105457,2.41485e-05,1.75918e-07,0.729415
247.5,9.80213,0.000100073,0.000105497,2.41671e-05,1.75298e-07,0.730368
249,9.80234,0.000100126,0.000105538,2.41854e-05,1.74685e-07,0.731312
250.5,9.80255,0.000100179,0.000105577,2.42036e-05,1.74078e-07,0.732245
252,9.80276,0.000100231,0.000105616,2.42215e-05,1.73478e-07,0.733169
253.5,9.80296,0.000100283,0.000105655,2.42392e-05,1.72884e-07,0.734083
255,9.80317,0.000100334,0.000105693,2.42568e-05,1.72296e-07,0.734987
256.5,9.80337,0.000100384,0.000105731,2.42741e-05,1.71714e-07,0.735882
258,9.80357,0.000100434,0.000105768,2.42913e-05,1.71138e-07,0.736767
259.5,9.80376,0.000100483,0.000105805,2.43082e-05,1.70568e-07,0.737644
261,9.80396,0.000100532,0.000105842,2.4325e-05,1.70004e-07,0.738512
262.5,9.80415,0.00010058,0.000105878,2.43417e-05,1.69445e-07,0.739371
264,9.80434,0.000100628,0.000105914,2.43581e-05,1.68892e-07,0.740221
265.5,9.80453,0.000100675,0.00010595,2.43744e-05,1.68345e-07,0.741063
267,9.80471,0.000100722,0.000105985,2.43905e-05,1.67803e-07,0.741897
268.5,9.8049,0.000100768,0.000106019,2.44064e-05,1.67266e-07,0.742723
270,9.80508,0.000100814,0.000106054,2.44222e-05,1.66734e-07,0.74354
271.5,9.80526,0.000100859,0.000106088,2.44378e-05,1.66208e-07,0.74435
273,9.80544,0.000100904,0.000106121,2.44533e-05,1.65687e-07,0.745152
274.5,9.80561,0.000100948,0.000106155,2.44686e-05,1.6517e-07,0.745946
276,9.80579,0.000100992,0.000106188,2.44837e-05,1.64659e-07,0.746733
277.5,9.80596,0.000101036,0.00010622,2.44987e-05,1.64152e-07,0.747513
279,9.80613,0.000101079,0.000106253,2.45136e-05,1.6365e-07,0.748285
280.5,9.8063,0.000101121,0.000106285,2.45283e-05,1.63152e-07,0.74905
282,9.80647,0.000101164,0.000106316,2.45429e-05,1.62659e-07,0.749808
283.5,9.80663,0.000101205,0.000106348,2.45573e-05,1.62171e-07,0.750559
285,9.8068,0.000101247,0.000106379,2.45716e-05,1.61687e-07,0.751304
286.5,9.80696,0.000101288,0.00010641,2.45858e-05,1.61208e-07,0.752041
288,9.80712,0.000101328,0.00010644,2.45998e-05,1.60732e-07,0.752772
289.5,9.80728,0.000101369,0.00010647,2.46137e-05,1.60261e-07,0.753497
291,9.80743,0.000101409,0.0001065,2.46275e-05,1.59795e-07,0.754215
292.5,9.80759,0.000101448,0.00010653,2.46411e-05,1.59332e-07,0.754926
294,9.80774,0.000101487,0.000106559,2.46547e-05,1.58873e-07,0.755632
295.5,9.8079,0.000101526,0.000106588,2.46681e-05,1.58418e-07,0.756331
297,9.80805,0.000101564,0.000106617,2.46813e-05,1.57968e-07,0.757025
298.5,9.8082,0.000101602,0.000106646,2.46945e-05,1.57521e-07,0.757712
300,9.80834,0.00010164,0.000106674,2.47075e-05,1.57077e-07,0.758394
301.5,9.80849,0.000101678,0.000106702,2.47205e-05,1.56638e-07,0.75907
303,9.80864,0.000101715,0.00010673,2.47333e-05,1.56202e-07,0.75974
304.5,9.80878,0.000101751,0.000106757,2.4746e-05,1.5577e-07,0.760404
306,9.80892,0.000101788,0.000106785,2.47586e-05,1.55342e-07,0.761063
307.5,9.80907,0.000101824,0.000106812,2.4771e-05,1.54917e-07,0.761717
309,9.80921,0.00010186,0.000106839,2.47834e-05,1.54496e-07,0.762365
310.5,9.80935,0.000101895,0.000106865,2.47957e-05,1.54078e-07,0.763008
312,9.80948,0.00010193,0.000106892,2.48078e-05,1.53663e-07,0.763645
313.5,9.80962,0.000101965,0.000106918,2.48199e-05,1.53252e-07,0.764278
315,9.80975,0.000102,0.000106944,2.48319e-05,1.52844e-07,0.764905
316.5,9.80989,0.000102034,0.000106969,2.48437e-05,1.52439e-07,0.765527
318,9.81002,0.000102068,0.000106995,2.48555e-05,1.52038e-07,0.766145
319.5,9.81015,0.000102101,0.00010702,2.48671e-05,1.5164e-07,0.766757
321,9.81028,0.000102135,0.000107045,2.48787e-05,1.51245e-07,0.767365
322.5,9.81041,0.000102168,0.00010707,2.48902e-05,1.50853e-07,0.767968
324,9.81054,0.000102201,0.000107095,2.49016e-05,1.50464e-07,0.768566
325.5,9.81067,0.000102233,0.000107119,2.49128e-05,1.50078e-07,0.76916
327,9.81079,0.000102266,0.000107144,2.4924e-05,1.49695e-07,0.769749
328.5,9.81092,0.000102298,0.000107168,2.49351e-05,1.49315e-07,0.770333
330,9.81104,0.00010233,0.000107191,2.49462e-05,1.48938e-07,0.770913
331.5,9.81117,0.000102361,0.000107215,2.49571e-05,1.48564e-07,0.771489
333,9.81129,0.000102393,0.000107239,2.49679e-05,1.48192e-07,0.77206
334.5,9.81141,0.000102424,0.000107262,2.49787e-05,1.47823e-07,0.772627
336,9.81153,0.000102454,0.000107285,2.49894e-05,1.47457e-07,0.77319
337.5,9.81165,0.000102485,0.000107308,2.5e-05,1.47094e-07,0.773749
339,9.81177,0.000102515,0.000107331,2.50105e-05,1.46734e-07,0.774303
340.5,9.81188,0.000102545,0.000107353,2.50209e-05,1.46376e-07,0.774854
342,9.812,0.000102575,0.000107376,2.50313e-05,1.46021e-07,0.7754
343.5,9.81212,0.000102605,0.000107398,2.50416e-05,1.45668e-07,0.775943
345,9.81223,0.000102634,0.00010742,2.50518e-05,1.45318e-07,0.776481
346.5,9.81234,0.000102663,0.000107442,2.50619e-05,1.4497e-07,0.777016
348,9.81246,0.000102692,0.000107464,2.50719e-05,1.44625e-07,0.777547
349.5,9.81257,0.000102721,0.000107485,2.50819e-05,1.44282e-07,0.778074
351,9.81268,0.00010275,0.000107507,2.50918e-05,1.43942e-07,0.778597
352.5,9.81279,0.000102778,0.000107528,2.51016e-05,1.43604e-07,0.779117
354,9.8129,0.000102806,0.000107549,2.51114e-05,1.43269e-07,0.779633
355.5,9.813,0.000102834,0.00010757,2.51211e-05,1.42936e-07,0.780145
357,9.81311,0.000102862,0.000107591,2.51307e-05,1.42605e-07,0.780654
358.5,9.81322,0.000102889,0.000107611,2.51402e-05,1.42277e-07,0.781159
360,9.81332,0.000102917,0.000107632,2.51497e-05,1.41951e-07,0.781661
361.5,9.81343,0.000102944,0.000107652,2.51591e-05,1.41627e-07,0.782159
363,9.81353,0.000102971,0.000107672,2.51684e-05,1.41305e-07,0.782654
364.5,9.81364,0.000102997,0.000107692,2.51777e-05,1.40985e-07,0.783145
366,9.81374,0.000103024,0.000107712,2.51869e-05,1.40668e-07,0.783634
367.5,9.81384,0.00010305,0.000107732,2.51961e-05,1.40353e-07,0.784118
369,9.81394,0.000103076,0.000107752,2.52052e-05,1.40039e-07,0.7846
370.5,9.81404,0.000103102,0.000107771,2.52142e-05,1.39728e-07,0.785079
372,9.81414,0.000103128,0.00010779,2.52231e-05,1.39419e-07,0.785554
373.5,9.81424,0.000103154,0.00010781,2.5232e-05,1.39112e-07,0.786026
375,9.81434,0.000103179,0.000107829,2.52409e-05,1.38807e-07,0.786495
376.5,9.81444,0.000103204,0.000107848,2.52496e-05,1.38504e-07,0.786961
378,9.81453,0.000103229,0.000107866,2.52583e-05,1.38204e-07,0.787424
379.5,9.81463,0.000103254,0.000107885,2.5267e-05,1.37905e-07,0.787884
381,9.81472,0.000103279,0.000107904,2.52756e-05,1.37607e-07,0.788341
382.5,9.81482,0.000103304,0.000107922,2.52841e-05,1.37312e-07,0.788795
384,9.81491,0.000103328,0.00010794,2.52926e-05,1.37019e-07,0.789246
385.5,9.81501,0.000103352,0.000107959,2.53011e-05,1.36728e-07,0.789694
387,9.8151,0.000103376,0.000107977,2.53094e-05,1.36438e-07,0.790139
388.5,9.81519,0.0001034,0.000107995,2.53177e-05,1.3615e-07,0.790582
390,9.81528,0.000103424,0.000108013,2.5326e-05,1.35865e-07,0.791021
391.5,9.81537,0.000103448,0.00010803,2.53342e-05,1.3558e-07,0.791458
393,9.81546,0.000103471,0.000108048,2.53424e-05,1.35298e-07,0.791893
394.5,9.81555,0.000103494,0.000108065,2.53505e-05,1.35018e-07,0.792324
396,9.81564,0.000103518,0.000108083,2.53585e-05,1.34739e-07,0.792753
397.5,9.81573,0.000103541,0.0001081,2.53665e-05,1.34462e-07,0.793179
399,9.81582,0.000103563,0.000108117,2.53745e-05,1.34186e-07,0.793603
400.5,9.8159,0.000103586,0.000108134,2.53824e-05,1.33912e-07,0.794024
402,9.81599,0.000103609,0.000108151,2.53902e-05,1.3364e-07,0.794442
403.5,9.81608,0.000103631,0.000108168,2.5398e-05,1.3337e-07,0.794858
405,9.81616,0.000103653,0.000108185,2.54058e-05,1.33101e-07,0.795272
406.5,9.81625,0.000103675,0.000108201,2.54135e-05,1.32834e-07,0.795682
408,9.81633,0.000103697,0.000108218,2.54211e-05,1.32569e-07,0.796091
409.5,9.81642,0.000103719,0.000108234,2.54287e-05,1.32305e-07,0.796497
411,9.8165,0.000103741,0.00010825,2.54363e-05,1.32042e-07,0.796901
412.5,9.81658,0.000103763,0.000108267,2.54438e-05,1.31781e-07,0.797302
414,9.81666,0.000103784,0.000108283,2.54513e-05,1.31522e-07,0.797701
415.5,9.81675,0.000103805,0.000108299,2.54587e-05,1.31264e-07,0.798097
417,9.81683,0.000103827,0.000108315,2.5466e-05,1.31008e-07,0.798491
418.5,9.81691,0.000103848,0.00010833,2.54734e-05,1.30753e-07,0.798883
420,9.81699,0.000103869,0.000108346,2.54807e-05,1.305e-07,0.799273
421.5,9.81707,0.000103889,0.000108362,2.54879e-05,1.30248e-07,0.79966
423,9.81715,0.00010391,0.000108377,2.54951e-05,1.29998e-07,0.800045
424.5,9.81722,0.000103931,0.000108393,2.55023e-05,1.29749e-07,0.800428
426,9.8173,0.000103951,0.000108408,2.55094e-05,1.29501e-07,0.800809
427.5,9.81738,0.000103971,0.000108423,2.55165e-05,1.29255e-07,0.801187
429,9.81746,0.000103991,0.000108438,2.55235e-05,1.29011e-07,0.801564
430.5,9.81753,0.000104012,0.000108453,2.55305e-05,1.28767e-07,0.801938
