Time,pH,mCa,mTIC,mCO3,rdiss,Omega
0,6,0,1.38772e-05,2.00234e-10,1.54e-06,0
1.5,6.19054,1.10144e-06,1.49798e-05,4.44447e-10,1.22391e-06,1.47836e-07
3,6.33684,2.05372e-06,1.59342e-05,7.97025e-10,1.05978e-06,4.94327e-07
4.5,6.45924,2.91453e-06,1.6798e-05,1.2728e-09,9.59132e-07,1.12029e-06
6,6.56799,3.71293e-06,1.76004e-05,1.89733e-09,8.90654e-07,2.12745e-06
7.5,6.66893,4.46569e-06,1.83581e-05,2.70921e-09,8.40743e-07,3.65369e-06
9,6.76591,5.1834e-06,1.90817e-05,3.7654e-09,8.0257e-07,5.89422e-06
10.5,6.86181,5.87323e-06,1.97784e-05,5.15108e-09,7.72335e-07,9.1364e-06
12,6.9592,6.54028e-06,2.04533e-05,6.99723e-09,7.47757e-07,1.38205e-05
13.5,7.06062,7.18834e-06,2.11102e-05,9.51316e-09,7.27391e-07,2.06516e-05
15,7.16894,7.82037e-06,2.17521e-05,1.30487e-08,7.10297e-07,3.08172e-05
16.5,7.2876,8.43877e-06,2.23813e-05,1.82167e-08,6.95866e-07,4.64247e-05
18,7.42055,9.04563e-06,2.29999e-05,2.61332e-08,6.83745e-07,7.13889e-05
19.5,7.5711,9.64291e-06,2.361e-05,3.88168e-08,6.73818e-07,0.000113039
21,7.73765,1.02327e-05,2.42134e-05,5.94468e-08,6.66161e-07,0.000183703
22.5,7.90775,1.08169e-05,2.48123e-05,9.11816e-08,6.60809e-07,0.00029786
24,8.0631,1.13975e-05,2.54085e-05,1.34404e-07,6.57392e-07,0.000462618
25.5,8.19434,1.19755e-05,2.60029e-05,1.86652e-07,6.55247e-07,0.000675034
27,8.3026,1.25515e-05,2.65964e-05,2.45222e-07,6.53826e-07,0.000929514
28.5,8.39253,1.31259e-05,2.71892e-05,3.08341e-07,6.52806e-07,0.00122225
30,8.46848,1.3699e-05,2.77815e-05,3.74995e-07,6.52013e-07,0.00155137
31.5,8.53377,1.42707e-05,2.83734e-05,4.44607e-07,6.51353e-07,0.00191612
33,8.59079,1.48413e-05,2.8965e-05,5.16829e-07,6.50773e-07,0.00231643
34.5,8.64126,1.54107e-05,2.95563e-05,5.91439e-07,6.50238e-07,0.00275253
36,8.68645,1.59789e-05,3.01474e-05,6.68284e-07,6.4973e-07,0.00322484
37.5,8.7273,1.6546e-05,3.07381e-05,7.47253e-07,6.49234e-07,0.00373387
39,8.76454,1.71119e-05,3.13286e-05,8.28259e-07,6.48742e-07,0.0042802
40.5,8.79871,1.76766e-05,3.19188e-05,9.11232e-07,6.48246e-07,0.00486439
42,8.83027,1.82402e-05,3.25086e-05,9.96114e-07,6.47742e-07,0.00548705
43.5,8.85956,1.88026e-05,3.30981e-05,1.08285e-06,6.47226e-07,0.00614875
45,8.88688,1.93638e-05,3.36872e-05,1.1714e-06,6.46694e-07,0.00685006
46.5,8.91245,1.99237e-05,3.42759e-05,1.26171e-06,6.46146e-07,0.00759154
48,8.93649,2.04824e-05,3.48642e-05,1.35375e-06,6.45579e-07,0.00837371
49.5,8.95914,2.10398e-05,3.54521e-05,1.44747e-06,6.44991e-07,0.0091971
51,8.98056,2.15959e-05,3.60394e-05,1.54284e-06,6.44381e-07,0.0100622
52.5,9.00087,2.21507e-05,3.66262e-05,1.63982e-06,6.43748e-07,0.0109694
54,9.02016,2.27042e-05,3.72125e-05,1.73838e-06,6.43092e-07,0.0119193
55.5,9.03854,2.32563e-05,3.77982e-05,1.83848e-06,6.42411e-07,0.0129121
57,9.05606,2.38069e-05,3.83832e-05,1.94009e-06,6.41705e-07,0.0139484
58.5,9.07282,2.43562e-05,3.89676e-05,2.04317e-06,6.40973e-07,0.0150284
60,9.08886,2.4904e-05,3.95513e-05,2.1477e-06,6.40214e-07,0.0161526
61.5,9.10423,2.54503e-05,4.01343e-05,2.25363e-06,6.39429e-07,0.0173211
63,9.119,2.59951e-05,4.07165e-05,2.36095e-06,6.38617e-07,0.0185343
64.5,9.1332,2.65383e-05,4.1298e-05,2.46961e-06,6.37777e-07,0.0197925
66,9.14686,2.708e-05,4.18786e-05,2.57958e-06,6.36909e-07,0.0210959
67.5,9.16003,2.76201e-05,4.24583e-05,2.69083e-06,6.36013e-07,0.0224446
69,9.17274,2.81585e-05,4.30372e-05,2.80334e-06,6.35088e-07,0.0238389
70.5,9.18501,2.86954e-05,4.36151e-05,2.91706e-06,6.34135e-07,0.0252789
72,9.19687,2.92305e-05,4.4192e-05,3.03198e-06,6.33153e-07,0.0267647
73.5,9.20834,2.97639e-05,4.4768e-05,3.14805e-06,6.32143e-07,0.0282964
75,9.21945,3.02956e-05,4.53429e-05,3.26525e-06,6.31103e-07,0.0298742
76.5,9.23022,3.08255e-05,4.59167e-05,3.38355e-06,6.30034e-07,0.0314979
78,9.24066,3.13536e-05,4.64895e-05,3.50291e-06,6.28935e-07,0.0331678
79.5,9.25079,3.18799e-05,4.7061e-05,3.62331e-06,6.27808e-07,0.0348837
81,9.26062,3.24043e-05,4.76314e-05,3.74472e-06,6.26651e-07,0.0366456
82.5,9.27018,3.29268e-05,4.82006e-05,3.86711e-06,6.25465e-07,0.0384535
84,9.27947,3.34475e-05,4.87686e-05,3.99044e-06,6.24249e-07,0.0403074
85.5,9.2885,3.39662e-05,4.93353e-05,4.11469e-06,6.23004e-07,0.042207
87,9.2973,3.44829e-05,4.99006e-05,4.23983e-06,6.2173e-07,0.0441522
88.5,9.30586,3.49976e-05,5.04647e-05,4.36584e-06,6.20427e-07,0.046143
90,9.3142,3.55103e-05,5.10273e-05,4.49267e-06,6.19094e-07,0.0481792
91.5,9.32233,3.6021e-05,5.15885e-05,4.6203e-06,6.17733e-07,0.0502604
93,9.33026,3.65296e-05,5.21483e-05,4.74871e-06,6.16343e-07,0.0523866
94.5,9.33799,3.7036e-05,5.27066e-05,4.87786e-06,6.14924e-07,0.0545575
96,9.34553,3.75404e-05,5.32634e-05,5.00774e-06,6.13477e-07,0.0567728
97.5,9.3529,3.80426e-05,5.38186e-05,5.13829e-06,6.12001e-07,0.0590322
99,9.36009,3.85426e-05,5.43723e-05,5.26952e-06,6.10497e-07,0.0613355
100.5,9.36712,3.90404e-05,5.49244e-05,5.40137e-06,6.08964e-07,0.0636822
102,9.37398,3.9536e-05,5.54748e-05,5.53383e-06,6.07404e-07,0.0660721
103.5,9.38069,4.00293e-05,5.60236e-05,5.66687e-06,6.05817e-07,0.0685048
105,9.38725,4.05203e-05,5.65707e-05,5.80046e-06,6.04202e-07,0.0709799
106.5,9.39367,4.1009e-05,5.7116e-05,5.93457e-06,6.0256e-07,0.0734969
108,9.39995,4.14954e-05,5.76596e-05,6.06919e-06,6.00891e-07,0.0760555
109.5,9.40609,4.19795e-05,5.82014e-05,6.20427e-06,5.99196e-07,0.0786552
111,9.41211,4.24611e-05,5.87414e-05,6.3398e-06,5.97474e-07,0.0812956
112.5,9.418,4.29404e-05,5.92796e-05,6.47575e-06,5.95727e-07,0.0839761
114,9.42376,4.34172e-05,5.98159e-05,6.61209e-06,5.93954e-07,0.0866963
115.5,9.42941,4.38916e-05,6.03503e-05,6.7488e-06,5.92155e-07,0.0894557
117,9.43495,4.43635e-05,6.08828e-05,6.88586e-06,5.90332e-07,0.0922537
118.5,9.44037,4.48329e-05,6.14133e-05,7.02323e-06,5.88484e-07,0.0950898
120,9.44569,4.52998e-05,6.19419e-05,7.16089e-06,5.86611e-07,0.0979634
121.5,9.4509,4.57642e-05,6.24684e-05,7.29883e-06,5.84715e-07,0.100874
123,9.45601,4.6226e-05,6.29929e-05,7.437e-06,5.82796e-07,0.103821
124.5,9.46102,4.66853e-05,6.35154e-05,7.5754e-06,5.80853e-07,0.106804
126,9.46594,4.7142e-05,6.40358e-05,7.714e-06,5.78887e-07,0.109822
127.5,9.47076,4.7596e-05,6.45542e-05,7.85276e-06,5.76899e-07,0.112874
129,9.47549,4.80475e-05,6.50704e-05,7.99168e-06,5.74889e-07,0.11596
130.5,9.48014,4.84963e-05,6.55844e-05,8.13073e-06,5.72858e-07,0.11908
132,9.48469,4.89424e-05,6.60963e-05,8.26988e-06,5.70805e-07,0.122232
133.5,9.48917,4.93859e-05,6.6606e-05,8.40911e-06,5.68732e-07,0.125416
135,9.49356,4.98267e-05,6.71135e-05,8.5484e-06,5.66639e-07,0.128631
136.5,9.49787,5.02647e-05,6.76188e-05,8.68773e-06,5.64525e-07,0.131877
138,9.50211,5.07001e-05,6.81218e-05,8.82707e-06,5.62393e-07,0.135153
139.5,9.50627,5.11327e-05,6.86226e-05,8.96642e-06,5.60241e-07,0.138458
141,9.51035,5.15625e-05,6.91211e-05,9.10573e-06,5.58072e-07,0.141791
142.5,9.51437,5.19896e-05,6.96173e-05,9.245e-06,5.55884e-07,0.145152
144,9.51831,5.24139e-05,7.01112e-05,9.38421e-06,5.53679e-07,0.14854
145.5,9.52219,5.28354e-05,7.06027e-05,9.52333e-06,5.51456e-07,0.151955
147,9.526,5.32541e-05,7.10919e-05,9.66234e-06,5.49218e-07,0.155394
148.5,9.52974,5.367e-05,7.15787e-05,9.80123e-06,5.46963e-07,0.158859
150,9.53342,5.4083e-05,7.20631e-05,9.93997e-06,5.44692e-07,0.162348
151.5,9.53703,5.44933e-05,7.25452e-05,1.00786e-05,5.42407e-07,0.16586
153,9.54059,5.49006e-05,7.30248e-05,1.0217e-05,5.40107e-07,0.169394
154.5,9.54408,5.53052e-05,7.3502e-05,1.03552e-05,5.37792e-07,0.172951
156,9.54752,5.57068e-05,7.39767e-05,1.04931e-05,5.35464e-07,0.176528
157.5,9.5509,5.61056e-05,7.44491e-05,1.06309e-05,5.33123e-07,0.180126
159,9.55422,5.65015e-05,7.49189e-05,1.07684e-05,5.3077e-07,0.183743
160.5,9.55749,5.68945e-05,7.53863e-05,1.09056e-05,5.28404e-07,0.187379
162,9.56071,5.72846e-05,7.58512e-05,1.10426e-05,5.26027e-07,0.191033
163.5,9.56387,5.76718e-05,7.63136e-05,1.11792e-05,5.23638e-07,0.194704
165,9.56698,5.80561e-05,7.67734e-05,1.13155e-05,5.21239e-07,0.198392
166.5,9.57004,5.84375e-05,7.72308e-05,1.14515e-05,5.18829e-07,0.202095
168,9.57305,5.8816e-05,7.76857e-05,1.15872e-05,5.1641e-07,0.205813
169.5,9.57601,5.91915e-05,7.8138e-05,1.17225e-05,5.13982e-07,0.209546
171,9.57892,5.95642e-05,7.85878e-05,1.18574e-05,5.11545e-07,0.213292
172.5,9.58179,5.99339e-05,7.9035e-05,1.19919e-05,5.091e-07,0.21705
174,9.58461,6.03006e-05,7.94797e-05,1.2126e-05,5.06647e-07,0.220821
175.5,9.58739,6.06644e-05,7.99218e-05,1.22597e-05,5.04187e-07,0.224603
177,9.59012,6.10253e-05,8.03613e-05,1.2393e-05,5.0172e-07,0.228395
178.5,9.59281,6.13833e-05,8.07983e-05,1.25258e-05,4.99247e-07,0.232197
180,9.59546,6.17383e-05,8.12327e-05,1.26582e-05,4.96768e-07,0.236008
181.5,9.59806,6.20904e-05,8.16646e-05,1.27901e-05,4.94283e-07,0.239827
183,9.60063,6.24395e-05,8.20938e-05,1.29215e-05,4.91794e-07,0.243653
184.5,9.60315,6.27857e-05,8.25205e-05,1.30524e-05,4.89301e-07,0.247487
186,9.60563,6.31289e-05,8.29445e-05,1.31828e-05,4.86803e-07,0.251326
187.5,9.60808,6.34693e-05,8.3366e-05,1.33127e-05,4.84302e-07,0.255171
189,9.61049,6.38066e-05,8.37849e-05,1.34421e-05,4.81798e-07,0.25902
190.5,9.61286,6.41411e-05,8.42012e-05,1.3571e-05,4.79292e-07,0.262874
192,9.61519,6.44726e-05,8.46149e-05,1.36993e-05,4.76783e-07,0.266731
193.5,9.61749,6.48012e-05,8.5026e-05,1.3827e-05,4.74273e-07,0.27059
195,9.61975,6.51269e-05,8.54345e-05,1.39542e-05,4.71762e-07,0.274451
196.5,9.62198,6.54497e-05,8.58405e-05,1.40808e-05,4.69249e-07,0.278314
198,9.62417,6.57695e-05,8.62438e-05,1.42068e-05,4.66737e-07,0.282177
199.5,9.62633,6.60865e-05,8.66445e-05,1.43322e-05,4.64224e-07,0.28604
201,9.62846,6.64005e-05,8.70427e-05,1.44571e-05,4.61712e-07,0.289902
202.5,9.63055,6.67116e-05,8.74383e-05,1.45813e-05,4.59201e-07,0.293764
204,9.63262,6.70199e-05,8.78312e-05,1.47049e-05,4.56691e-07,0.297623
205.5,9.63465,6.73252e-05,8.82217e-05,1.48279e-05,4.54183e-07,0.301479
207,9.63665,6.76277e-05,8.86095e-05,1.49502e-05,4.51676e-07,0.305333
208.5,9.63862,6.79273e-05,8.89947e-05,1.5072e-05,4.49173e-07,0.309182
210,9.64056,6.82241e-05,8.93774e-05,1.5193e-05,4.46672e-07,0.313028
211.5,9.64247,6.8518e-05,8.97576e-05,1.53135e-05,4.44174e-07,0.316868
213,9.64435,6.88091e-05,9.01351e-05,1.54332e-05,4.4168e-07,0.320703
214.5,9.6462,6.90973e-05,9.05101e-05,1.55523e-05,4.3919e-07,0.324532
216,9.64802,6.93827e-05,9.08826e-05,1.56708e-05,4.36705e-07,0.328354
217.5,9.64982,6.96652e-05,9.12525e-05,1.57885e-05,4.34224e-07,0.332169
219,9.65159,6.9945e-05,9.16199e-05,1.59056e-05,4.31747e-07,0.335976
220.5,9.65333,7.0222e-05,9.19848e-05,1.60221e-05,4.29277e-07,0.339775
222,9.65505,7.04962e-05,9.23472e-05,1.61378e-05,4.26812e-07,0.343565
223.5,9.65674,7.07676e-05,9.2707e-05,1.62528e-05,4.24353e-07,0.347346
225,9.65841,7.10362e-05,9.30643e-05,1.63671e-05,4.219e-07,0.351118
226.5,9.66005,7.13021e-05,9.34192e-05,1.64808e-05,4.19454e-07,0.354879
228,9.66166,7.15652e-05,9.37715e-05,1.65937e-05,4.17015e-07,0.358629
229.5,9.66326,7.18256e-05,9.41214e-05,1.6706e-05,4.14584e-07,0.362369
231,9.66482,7.20833e-05,9.44688e-05,1.68175e-05,4.12159e-07,0.366097
232.5,9.66637,7.23383e-05,9.48138e-05,1.69283e-05,4.09743e-07,0.369812
234,9.66789,7.25905e-05,9.51563e-05,1.70384e-05,4.07335e-07,0.373516
235.5,9.66939,7.28401e-05,9.54963e-05,1.71478e-05,4.04935e-07,0.377206
237,9.67086,7.30871e-05,9.58339e-05,1.72564e-05,4.02543e-07,0.380883
238.5,9.67232,7.33313e-05,9.61691e-05,1.73644e-05,4.00161e-07,0.384547
240,9.67375,7.3573e-05,9.65019e-05,1.74716e-05,3.97788e-07,0.388196
241.5,9.67516,7.3812e-05,9.68323e-05,1.75781e-05,3.95424e-07,0.391831
243,9.67655,7.40483e-05,9.71603e-05,1.76839e-05,3.9307e-07,0.395452
244.5,9.67791,7.42821e-05,9.7486e-05,1.77889e-05,3.90725e-07,0.399057
246,9.67926,7.45133e-05,9.78092e-05,1.78933e-05,3.88391e-07,0.402646
247.5,9.68059,7.47419e-05,9.81302e-05,1.79969e-05,3.86067e-07,0.40622
249,9.68189,7.4968e-05,9.84487e-05,1.80997e-05,3.83754e-07,0.409778
250.5,9.68318,7.51915e-05,9.8765e-05,1.82019e-05,3.81451e-07,0.413319
252,9.68445,7.54125e-05,9.90789e-05,1.83033e-05,3.79159e-07,0.416843
253.5,9.6857,7.5631e-05,9.93905e-05,1.84039e-05,3.76879e-07,0.42035
255,9.68693,7.5847e-05,9.96999e-05,1.85039e-05,3.7461e-07,0.42384
256.5,9.68814,7.60605e-05,0.000100007,1.86031e-05,3.72352e-07,0.427312
258,9.68933,7.62716e-05,0.000100312,1.87016e-05,3.70106e-07,0.430766
259.5,9.69051,7.64802e-05,0.000100614,1.87994e-05,3.67871e-07,0.434202
261,9.69167,7.66863e-05,0.000100915,1.88964e-05,3.65649e-07,0.43762
262.5,9.69281,7.68901e-05,0.000101213,1.89927e-05,3.63439e-07,0.441019
264,9.69393,7.70914e-05,0.000101508,1.90883e-05,3.61241e-07,0.444399
265.5,9.69504,7.72904e-05,0.000101802,1.91831e-05,3.59055e-07,0.44776
267,9.69613,7.7487e-05,0.000102094,1.92773e-05,3.56882e-07,0.451102
268.5,9.6972,7.76812e-05,0.000102383,1.93707e-05,3.54722e-07,0.454424
270,9.69826,7.78731e-05,0.00010267,1.94634e-05,3.52575e-07,0.457726
271.5,9.6993,7.80627e-05,0.000102955,1.95553e-05,3.5044e-07,0.461009
273,9.70032,7.825e-05,0.000103238,1.96466e-05,3.48319e-07,0.464271
274.5,9.70133,7.8435e-05,0.000103519,1.97371e-05,3.46211e-07,0.467513
276,9.70232,7.86177e-05,0.000103797,1.98269e-05,3.44116e-07,0.470735
277.5,9.7033,7.87982e-05,0.000104074,1.99161e-05,3.42034e-07,0.473936
279,9.70427,7.89764e-05,0.000104348,2.00045e-05,3.39966e-07,0.477117
280.5,9.70521,7.91525e-05,0.000104621,2.00922e-05,3.37912e-07,0.480276
282,9.70615,7.93263e-05,0.000104891,2.01791e-05,3.35871e-07,0.483415
283.5,9.70707,7.94979e-05,0.00010516,2.02654e-05,3.33844e-07,0.486532
285,9.70798,7.96674e-05,0.000105426,2.0351e-05,3.3183e-07,0.489629
286.5,9.70887,7.98347e-05,0.00010569,2.04359e-05,3.29831e-07,0.492704
288,9.70975,7.99999e-05,0.000105953,2.05201e-05,3.27845e-07,0.495758
289.5,9.71061,8.0163e-05,0.000106213,2.06036e-05,3.25873e-07,0.49879
291,9.71146,8.0324e-05,0.000106472,2.06864e-05,3.23916e-07,0.5018
292.5,9.7123,8.04829e-05,0.000106728,2.07686e-05,3.21972e-07,0.504789
294,9.71313,8.06397e-05,0.000106983,2.085e-05,3.20043e-07,0.507757
295.5,9.71394,8.07945e-05,0.000107236,2.09308e-05,3.18128e-07,0.510702
297,9.71474,8.09473e-05,0.000107486,2.10109e-05,3.16227e-07,0.513626
298.5,9.71553,8.1098e-05,0.000107735,2.10903e-05,3.1434e-07,0.516528
300,9.7163,8.12468e-05,0.000107982,2.11691e-05,3.12467e-07,0.519407
301.5,9.71707,8.13936e-05,0.000108228,2.12472e-05,3.10609e-07,0.522265
303,9.71782,8.15384e-05,0.000108471,2.13246e-05,3.08765e-07,0.525101
304.5,9.71856,8.16813e-05,0.000108712,2.14014e-05,3.06935e-07,0.527915
306,9.71929,8.18223e-05,0.000108952,2.14775e-05,3.0512e-07,0.530707
307.5,9.72,8.19613e-05,0.00010919,2.15529e-05,3.03319e-07,0.533477
309,9.72071,8.20985e-05,0.000109426,2.16278e-05,3.01532e-07,0.536225
310.5,9.7214,8.22338e-05,0.000109661,2.17019e-05,2.9976e-07,0.538951
312,9.72209,8.23672e-05,0.000109894,2.17755e-05,2.98002e-07,0.541654
313.5,9.72276,8.24988e-05,0.000110124,2.18484e-05,2.96258e-07,0.544336
315,9.72342,8.26286e-05,0.000110354,2.19206e-05,2.94529e-07,0.546995
316.5,9.72408,8.27566e-05,0.000110581,2.19923e-05,2.92814e-07,0.549633
318,9.72472,8.28828e-05,0.000110807,2.20633e-05,2.91113e-07,0.552249
319.5,9.72535,8.30072e-05,0.000111031,2.21337e-05,2.89427e-07,0.554842
321,9.72597,8.31298e-05,0.000111254,2.22035e-05,2.87755e-07,0.557414
322.5,9.72658,8.32508e-05,0.000111475,2.22726e-05,2.86097e-07,0.559964
324,9.72718,8.337e-05,0.000111694,2.23412e-05,2.84453e-07,0.562492
325.5,9.72777,8.34875e-05,0.000111912,2.24092e-05,2.82823e-07,0.564998
327,9.72836,8.36033e-05,0.000112128,2.24765e-05,2.81208e-07,0.567483
328.5,9.72893,8.37175e-05,0.000112342,2.25433e-05,2.79607e-07,0.569946
330,9.72949,8.383e-05,0.000112555,2.26095e-05,2.78019e-07,0.572387
331.5,9.73005,8.39408e-05,0.000112767,2.2675e-05,2.76446e-07,0.574807
333,9.73059,8.40501e-05,0.000112977,2.27401e-05,2.74887e-07,0.577205
334.5,9.73113,8.41577e-05,0.000113185,2.28045e-05,2.73342e-07,0.579581
336,9.73166,8.42638e-05,0.000113392,2.28683e-05,2.7181e-07,0.581937
337.5,9.73217,8.43682e-05,0.000113597,2.29316e-05,2.70293e-07,0.584271
339,9.73269,8.44712e-05,0.000113801,2.29943e-05,2.68789e-07,0.586583
340.5,9.73319,8.45726e-05,0.000114003,2.30565e-05,2.67299e-07,0.588875
342,9.73368,8.46724e-05,0.000114204,2.31181e-05,2.65823e-07,0.591146
343.5,9.73417,8.47708e-05,0.000114404,2.31792e-05,2.6436e-07,0.593395
345,9.73464,8.48676e-05,0.000114602,2.32397e-05,2.62911e-07,0.595624
346.5,9.73511,8.4963e-05,0.000114798,2.32996e-05,2.61475e-07,0.597832
348,9.73558,8.50569e-05,0.000114994,2.33591e-05,2.60053e-07,0.600019
349.5,9.73603,8.51494e-05,0.000115187,2.34179e-05,2.58644e-07,0.602186
351,9.73648,8.52405e-05,0.00011538,2.34763e-05,2.57249e-07,0.604332
352.5,9.73692,8.53301e-05,0.000115571,2.35341e-05,2.55867e-07,0.606458
354,9.73735,8.54183e-05,0.000115761,2.35915e-05,2.54498e-07,0.608563
355.5,9.73777,8.55052e-05,0.000115949,2.36482e-05,2.53142e-07,0.610649
357,9.73819,8.55907e-05,0.000116136,2.37045e-05,2.51799e-07,0.612714
358.5,9.7386,8.56748e-05,0.000116322,2.37603e-05,2.50469e-07,0.61476
360,9.739,8.57576e-05,0.000116507,2.38156e-05,2.49152e-07,0.616785
361.5,9.7394,8.5839e-05,0.00011669,2.38704e-05,2.47848e-07,0.618791
363,9.73979,8.59192e-05,0.000116872,2.39246e-05,2.46556e-07,0.620777
364.5,9.74017,8.5998e-05,0.000117053,2.39784e-05,2.45278e-07,0.622744
366,9.74054,8.60756e-05,0.000117232,2.40317e-05,2.44012e-07,0.624691
367.5,9.74091,8.61519e-05,0.000117411,2.40845e-05,2.42758e-07,0.626619
369,9.74128,8.6227e-05,0.000117588,2.41369e-05,2.41517e-07,0.628528
370.5,9.74163,8.63008e-05,0.000117763,2.41888e-05,2.40288e-07,0.630418
372,9.74198,8.63734e-05,0.000117938,2.42402e-05,2.39072e-07,0.632289
373.5,9.74233,8.64447e-05,0.000118112,2.42911e-05,2.37867e-07,0.634141
375,9.74266,8.65149e-05,0.000118284,2.43416e-05,2.36675e-07,0.635974
376.5,9.743,8.65839e-05,0.000118455,2.43916e-05,2.35495e-07,0.637789
378,9.74332,8.66517e-05,0.000118625,2.44411e-05,2.34327e-07,0.639586
379.5,9.74364,8.67184e-05,0.000118794,2.44903e-05,2.33171e-07,0.641365
381,9.74396,8.67839e-05,0.000118962,2.45389e-05,2.32026e-07,0.643125
382.5,9.74426,8.68483e-05,0.000119128,2.45872e-05,2.30893e-07,0.644867
384,9.74457,8.69116e-05,0.000119294,2.4635e-05,2.29772e-07,0.646592
385.5,9.74486,8.69738e-05,0.000119458,2.46823e-05,2.28662e-07,0.648298
387,9.74516,8.70349e-05,0.000119622,2.47293e-05,2.27564e-07,0.649988
388.5,9.74544,8.70949e-05,0.000119784,2.47758e-05,2.26477e-07,0.651659
390,9.74572,8.71538e-05,0.000119946,2.48219e-05,2.25402e-07,0.653313
391.5,9.746,8.72117e-05,0.000120106,2.48676e-05,2.24337e-07,0.654951
393,9.74627,8.72686e-05,0.000120265,2.49129e-05,2.23284e-07,0.656571
394.5,9.74653,8.73244e-05,0.000120423,2.49577e-05,2.22242e-07,0.658174
396,9.74679,8.73792e-05,0.00012058,2.50022e-05,2.2121e-07,0.65976
397.5,9.74705,8.7433e-05,0.000120737,2.50463e-05,2.2019e-07,0.66133
399,9.7473,8.74858e-05,0.000120892,2.50899e-05,2.1918e-07,0.662883
400.5,9.74755,8.75376e-05,0.000121046,2.51332e-05,2.1818e-07,0.66442
402,9.74779,8.75885e-05,0.000121199,2.51761e-05,2.17192e-07,0.66594
403.5,9.74802,8.76384e-05,0.000121352,2.52186e-05,2.16214e-07,0.667445
405,9.74825,8.76873e-05,0.000121503,2.52607e-05,2.15246e-07,0.668933
406.5,9.74848,8.77354e-05,0.000121653,2.53025e-05,2.14288e-07,0.670406
408,9.7487,8.77825e-05,0.000121803,2.53439e-05,2.13341e-07,0.671863
409.5,9.74892,8.78287e-05,0.000121951,2.53849e-05,2.12404e-07,0.673304
411,9.74914,8.7874e-05,0.000122099,2.54255e-05,2.11477e-07,0.67473
412.5,9.74935,8.79184e-05,0.000122246,2.54658e-05,2.1056e-07,0.676141
414,9.74955,8.79619e-05,0.000122392,2.55057e-05,2.09652e-07,0.677536
415.5,9.74975,8.80046e-05,0.000122537,2.55453e-05,2.08755e-07,0.678917
417,9.74995,8.80464e-05,0.000122681,2.55845e-05,2.07867e-07,0.680282
418.5,9.75014,8.80873e-05,0.000122824,2.56234e-05,2.06989e-07,0.681633
420,9.75033,8.81275e-05,0.000122967,2.56619e-05,2.0612e-07,0.682969
421.5,9.75051,8.81668e-05,0.000123108,2.57001e-05,2.05261e-07,0.684291
423,9.75069,8.82053e-05,0.000123249,2.5738e-05,2.04411e-07,0.685598
424.5,9.75087,8.8243e-05,0.000123389,2.57755e-05,2.0357e-07,0.686891
426,9.75104,8.82799e-05,0.000123528,2.58127e-05,2.02738e-07,0.68817
427.5,9.75121,8.8316e-05,0.000123666,2.58496e-05,2.01916e-07,0.689435
429,9.75138,8.83513e-05,0.000123804,2.58862e-05,2.01102e-07,0.690687
